0 0 1 0 28007910 -73013527 -55714036 -101045641 43 0 0 0 0 0 0 0 0 0 43 85 2384 0 0 0 41 41 41 935 41
2 0 1 0 5005260 -50032511 -44600305 -110795562 45 0 0 2 0 2 2 0 1 0 45 89 2451 7 2 5 43 43 70 989 43
4 0 1 0 32064894 -88351029 -48229245 -97616241 49 0 0 0 0 0 0 0 0 0 49 98 2819 0 0 0 47 47 64 1124 47
6 0 1 0 21003313 -38726128 -85981543 -98674210 56 0 0 0 0 0 0 0 0 0 56 111 3181 0 0 0 54 54 26 1294 54
8 0 1 2 -30121391 -32975993 -22096008 -114643292 44 2 1 9 4 5 4 2 1 0 43 83 2336 24 12 12 42 42 139 927 39
10 0 1 0 14573130 -51195172 -56250556 -108143043 51 0 0 3 1 0 0 0 0 0 51 102 2948 3 3 0 49 49 74 1169 49
12 0 1 0 13988218 -56707954 -42348388 -115002733 37 0 0 6 0 0 0 0 1 0 36 74 2353 7 6 1 35 35 65 900 35
14 0 1 0 31945144 -92918886 -36136232 -104164592 40 1 0 4 1 0 0 0 0 0 40 80 2427 5 5 0 38 38 76 885 37
16 0 1 0 34797219 -102417594 -22097347 -110031133 31 0 0 2 0 0 0 0 0 0 31 61 1710 2 2 0 29 29 67 665 29
18 0 1 0 12238708 -94958400 -4836181 -114111914 38 0 0 3 1 0 0 0 0 0 38 75 2277 3 3 0 36 36 77 919 36
20 0 1 0 28431789 -88808009 -29587872 -110502213 34 0 0 6 0 0 0 0 0 0 34 68 2019 6 6 0 32 32 78 798 32
22 0 1 0 13535658 -90092769 -18590619 -103936553 29 2 0 11 6 0 0 0 0 0 29 58 1840 13 13 0 27 27 130 623 25
24 0 1 0 33409813 -83279277 -37418163 -111359998 27 0 0 10 0 0 0 0 0 0 27 53 1428 10 10 0 25 25 90 573 25
26 0 1 0 20156316 -90872939 -22311761 -106139663 32 2 0 13 3 0 0 0 0 0 32 64 1857 15 15 0 30 30 131 667 28
28 0 1 0 35241629 -80549183 -40849377 -110970727 28 1 0 13 2 0 0 0 0 0 28 55 1453 14 14 0 26 26 118 543 25
30 0 1 2 -25311767 -106592483 -197211 -64341288 40 13 7 17 13 10 10 0 0 0 40 65 715 57 37 20 38 38 254 212 25
32 0 1 0 38186926 -93412587 -35526221 -107173813 26 0 0 2 0 0 0 0 0 0 26 51 667 2 2 0 24 24 49 239 24
34 0 1 2 -19243971 -88898068 -1135269 -87914305 31 5 1 8 5 1 1 0 0 0 31 57 769 16 14 2 29 29 135 261 24
36 0 1 0 52780069 -99029581 -50213755 -101861384 29 0 0 3 0 0 0 0 0 0 29 57 670 3 3 0 27 27 58 242 27
38 0 1 0 39111144 -102031579 -32233354 -102669925 29 0 0 2 0 0 0 0 0 0 29 57 742 2 2 0 27 27 52 278 27
40 0 1 0 53774423 -88079094 -64548081 -99443775 32 0 0 0 0 0 0 0 0 0 32 63 770 0 0 0 30 30 39 299 30
42 0 1 0 -364095 -43145663 -54180519 -101424246 41 2 1 4 2 5 5 0 1 0 41 73 904 18 7 11 39 39 86 349 37
44 0 1 0 37746668 -108947317 -27314852 -99912709 31 0 0 2 0 0 0 0 0 0 30 61 802 2 2 0 29 29 56 302 28
46 0 1 2 -43876126 -98810488 -4599159 -49171014 43 14 5 19 16 10 10 0 0 0 43 65 875 58 38 20 41 41 277 261 27
48 0 1 2 -26373116 -71290559 7705573 -105396756 37 4 2 13 4 15 15 0 4 0 36 66 922 53 19 34 35 35 153 341 31
50 0 1 2 -28692101 -78019051 -18035980 -72563003 35 9 1 13 9 4 4 0 0 0 35 61 847 31 23 8 33 33 178 252 24
52 0 1 0 -2148325 -84373464 -7421147 -102760425 31 3 1 11 4 3 3 0 0 0 31 59 803 21 15 6 29 29 137 308 26
54 0 1 2 -46193369 -57389947 -22193726 -55649017 32 11 2 14 12 28 3 27 2 0 32 61 1110 87 27 60 30 30 214 379 19
56 0 1 3 -104593126 -47018674 -38217293 1761037 49 32 12 35 34 42 25 31 11 0 49 128 2703 193 79 114 47 47 507 344 15
58 0 1 2 -65357435 -67637404 -20110121 -31380609 44 21 10 23 22 32 21 26 7 0 43 103 1867 144 54 90 42 42 348 637 21
60 0 1 0 35660391 -90117207 -37104052 -109022116 38 0 0 3 0 0 0 0 0 0 37 75 2084 3 3 0 36 36 63 874 35
62 0 1 0 30703694 -90697615 -33860254 -107036047 35 0 0 7 0 0 0 0 0 0 35 69 1966 7 7 0 33 33 85 839 33
64 0 1 0 31794754 -65682095 -62419135 -104693101 45 0 0 1 0 0 0 0 0 0 44 89 2522 1 1 0 43 43 49 1030 42
66 0 1 0 17850090 -88589169 -29476133 -99890107 36 0 0 14 5 0 0 0 0 0 36 71 1977 14 14 0 34 34 145 871 34
68 0 1 0 28175802 -72703847 -40123921 -114981182 37 0 0 5 0 4 4 0 0 0 37 73 2053 13 5 8 35 35 83 873 35
70 0 1 0 38984485 -99305216 -30646779 -109345796 32 0 0 6 0 0 0 0 0 0 32 63 1792 6 6 0 30 30 83 780 30
72 0 1 0 31162318 -78881373 -48725546 -105179498 39 0 0 0 0 0 0 0 0 0 39 77 2165 0 0 0 37 37 46 925 37
74 0 1 0 36618289 -83874773 -43253627 -109633867 36 0 0 1 0 0 0 0 0 0 36 71 2041 1 1 0 34 34 64 852 34
76 0 1 0 37613006 -90243502 -38924818 -108978068 37 0 0 1 0 0 0 0 0 0 37 72 2079 1 1 0 35 35 65 910 35
78 0 1 0 36191273 -96797479 -29981316 -109846200 36 0 0 6 1 0 0 0 0 0 36 71 2073 6 6 0 34 34 98 879 34
80 0 1 0 39237085 -87779937 -41138289 -110225067 36 0 0 9 0 0 0 0 0 0 36 71 2060 9 9 0 34 34 86 875 34
82 0 1 0 36140777 -94351111 -33421123 -108987811 37 0 0 2 0 0 0 0 0 0 37 73 2075 2 2 0 35 35 62 889 35
84 0 1 2 -25300993 -121756346 21750337 -67471854 30 11 5 19 11 1 1 0 0 0 30 57 1624 37 35 2 28 28 238 428 17
86 0 1 2 -23607624 -132362833 32914190 -70032544 29 10 6 15 10 0 0 0 0 0 29 57 1443 31 31 0 27 27 204 355 17
88 0 1 2 -26699958 -136003401 14118358 -44509152 29 12 3 19 13 0 0 0 0 0 29 57 1446 34 34 0 27 27 240 324 15
90 0 1 0 51294367 -111976465 -41711414 -96664049 39 0 0 4 0 0 0 0 0 0 39 77 1277 4 4 0 37 37 72 555 37
92 0 1 0 51250370 -100041730 -56081158 -93634693 44 0 0 1 0 0 0 0 0 0 43 87 1390 1 1 0 42 42 67 627 41
94 0 1 0 42903252 -55878782 -82649666 -102730103 40 0 0 0 0 0 0 0 0 0 40 78 1277 0 0 0 38 38 15 634 38
96 0 1 0 16341667 -42915382 -80715491 -93105965 54 0 0 0 0 0 0 0 0 0 54 107 1620 0 0 0 52 52 11 713 52
98 0 1 0 31245863 -89125586 -53124483 -89031517 44 0 0 1 0 0 0 0 0 0 43 87 1305 1 1 0 42 42 55 572 41
100 0 1 0 42805165 -107410930 -41567405 -93084828 41 0 0 2 0 0 0 0 0 0 41 81 1304 2 2 0 39 39 72 550 39
102 0 1 0 45600657 -92609142 -59303022 -93391332 41 0 0 0 0 0 0 0 0 0 41 81 1330 0 0 0 39 39 45 585 39
104 0 1 0 34790347 -121162925 -20628198 -92735164 38 0 0 4 0 0 0 0 0 0 38 75 1169 4 4 0 36 36 93 466 36
106 0 1 0 34617945 -107230720 -30793007 -95731490 37 0 0 5 0 0 0 0 0 0 37 73 1111 5 5 0 35 35 74 452 35
108 0 1 0 37710839 -93351053 -42448482 -100300033 36 0 0 3 0 0 0 0 0 0 36 71 1093 3 3 0 34 34 61 447 34
110 0 1 0 46999975 -111203016 -33653524 -100680807 36 0 0 6 1 0 0 0 0 0 36 71 1191 6 6 0 34 34 107 541 34
112 0 1 0 51971024 -104733332 -40152237 -104952549 35 0 1 4 0 0 0 0 0 0 34 69 1136 5 5 0 33 33 65 471 32
114 0 1 0 40889397 -69692499 -61956463 -106846907 41 2 1 8 4 1 1 0 0 0 41 79 1215 13 11 2 39 39 111 539 37
116 0 1 0 41150333 -109735540 -31192397 -99020355 35 0 1 8 1 0 0 0 0 0 34 68 1097 9 9 0 32 33 99 455 32
118 0 1 0 37302013 -105866726 -35571545 -95081846 36 0 0 0 0 0 0 0 0 0 35 71 1089 0 0 0 34 34 65 442 34
120 0 1 0 4162521 -49371021 -65967090 -88600485 47 2 0 3 2 7 7 0 0 0 47 91 1488 19 5 14 45 45 66 502 43
122 0 1 0 16869691 -51430042 -71616804 -93874095 47 1 0 2 1 1 1 0 0 0 47 93 1706 5 3 2 45 45 42 599 44
124 0 1 0 -2358870 -11685484 -83977575 -100909833 52 2 1 3 2 4 4 0 0 0 52 101 1844 14 6 8 50 50 41 620 48
126 0 1 0 18532234 -29728038 -86084166 -101010120 43 0 0 0 0 2 2 0 0 0 43 85 1491 4 0 4 41 41 17 491 41
128 0 1 0 21857785 -62674518 -69179106 -90151698 43 0 0 0 0 0 0 0 0 0 43 85 1476 0 0 0 41 41 23 515 41
130 0 1 0 22169287 -86577953 -43228165 -92100284 44 2 0 5 3 2 2 0 0 0 44 87 1560 11 7 4 42 42 103 566 40
132 0 1 0 30718397 -71063885 -65344776 -93227690 43 0 0 0 0 0 0 0 0 0 42 84 1373 0 0 0 40 41 36 501 40
134 0 1 0 22403180 -52896618 -69864809 -98665713 49 2 1 4 3 2 2 0 0 0 49 93 1730 11 7 4 47 47 79 681 45
136 0 1 0 22871863 -63957221 -57713014 -101623076 36 0 0 0 0 0 0 0 0 0 36 71 1384 0 0 0 34 34 16 475 34
138 0 1 0 36214054 -62776154 -69787943 -103021921 37 0 0 0 0 1 1 0 0 0 37 73 1403 2 0 2 35 35 24 519 35
140 0 1 0 6308894 -51357289 -50585237 -103296769 42 5 1 5 5 2 2 0 0 0 42 77 1530 15 11 4 40 40 85 581 35
142 0 1 0 39575633 -75891361 -66764627 -96736685 38 0 0 0 0 0 0 0 0 0 38 75 1448 0 0 0 36 36 27 537 36
144 0 1 0 46953483 -87604187 -57385750 -100739022 36 0 0 2 0 0 0 0 0 0 36 71 1359 2 2 0 34 34 36 488 34
146 0 1 0 36009246 -38547411 -85639259 -109579849 36 0 0 0 0 2 2 0 0 0 36 70 1331 4 0 4 34 34 11 476 34
148 0 1 0 25468881 -68481607 -60421019 -96387946 36 0 0 0 0 0 0 0 0 0 36 71 1213 0 0 0 34 34 23 442 34
150 0 1 0 20056905 -53692106 -68137358 -98431891 47 0 0 0 0 2 2 0 0 0 46 92 1643 4 0 4 44 45 37 660 44
152 0 1 2 -13936416 -143741581 -7130887 -25419426 30 12 6 22 15 0 0 0 0 0 30 59 1064 40 40 0 28 28 273 224 16
154 0 1 3 -83342318 -123502468 2973040 3598000 68 22 7 38 26 35 35 0 1 0 67 77 1311 138 67 71 66 66 497 597 43
156 0 1 0 20539465 -94955126 -38400656 -88015099 48 3 1 6 4 0 0 0 0 0 48 95 1548 10 10 0 46 46 106 626 43
158 0 1 0 31873750 -115936281 -30332732 -85896748 42 3 0 13 5 0 0 0 0 0 41 83 1375 16 16 0 40 40 154 518 37
160 0 1 0 32855374 -99332581 -44616542 -88451696 46 0 0 3 0 0 0 0 0 0 46 91 1501 3 3 0 44 44 64 586 44
162 0 1 2 -54121413 -97386852 3624752 -46412185 47 13 6 30 17 9 9 0 1 0 47 75 1265 68 49 19 45 45 357 446 32
164 0 1 2 -20305995 -129038396 -13413647 -31035056 42 13 3 26 14 2 2 0 0 0 41 73 1331 46 42 4 40 40 321 427 26
166 0 1 0 237032 -99947180 -18624984 -80048205 39 6 1 11 7 1 1 0 0 0 39 75 1404 20 18 2 37 37 152 437 31
168 0 1 0 25493446 -102507877 -27104900 -95454768 40 3 0 11 5 3 3 0 0 0 40 77 1356 20 14 6 38 38 156 542 35
170 0 1 0 22605028 -101273775 -28288361 -92156895 36 1 0 13 2 0 0 0 0 0 36 71 1215 14 14 0 34 34 138 461 33
172 0 1 0 -22184384 -86693103 -24788435 -61849844 33 7 1 21 11 1 1 0 0 0 33 65 1141 31 29 2 31 31 229 349 25
174 0 1 2 -19387552 -118511273 9115360 -64584237 34 5 2 19 7 0 0 0 0 0 34 67 1146 26 26 0 32 32 203 347 27
176 0 1 2 -23423833 -131769495 -13397596 -21320751 29 12 3 22 13 0 0 0 0 0 29 57 937 37 37 0 27 27 257 194 15
178 0 1 2 -27427742 -133763624 -10703304 -19147257 29 11 4 20 15 0 0 0 0 0 29 57 940 35 35 0 27 27 252 208 16
180 0 1 2 -41724900 -72603010 25818221 -111597808 35 4 0 15 5 2 2 0 0 0 35 65 1839 23 19 4 33 33 155 687 29
182 0 1 2 -29346812 -54661024 -5929097 -111437489 44 1 0 10 3 4 4 0 0 0 44 87 2341 19 11 8 42 42 124 942 41
184 0 1 2 -29942475 -39040376 -11803357 -117515621 40 0 0 4 0 5 2 5 0 0 40 77 2222 16 4 12 38 38 87 898 38
186 0 1 1 -46479060 -5683223 -29204631 -115634716 37 1 0 13 2 5 3 3 1 0 37 67 1971 26 14 12 35 35 135 774 34
188 0 1 2 -33325915 -79665691 27957529 -115268028 39 3 0 12 3 1 1 0 0 0 39 75 2170 17 15 2 37 37 147 811 34
190 0 1 2 -55472985 -89543438 43393243 -99170201 38 7 0 14 8 3 3 0 0 0 38 69 1979 27 21 6 36 36 190 695 29
192 0 1 2 -34718923 -57064470 11220473 -121022800 41 2 0 4 2 1 1 1 0 0 41 79 2270 9 6 3 39 39 83 863 37
194 0 1 2 -39020407 -69188004 32253728 -123631955 34 3 0 5 3 1 1 1 0 0 34 65 2004 11 8 3 32 32 102 694 29
196 0 1 2 -15778573 -64816378 909006 -121098271 33 0 0 7 0 1 1 0 0 0 33 65 1978 9 7 2 31 31 69 740 31
198 0 1 2 -57057029 -91874152 30281130 -77492942 28 7 0 15 11 2 2 0 0 0 28 51 1549 26 22 4 26 26 188 411 18
200 0 1 2 -54250428 -88231489 27144817 -80247784 26 6 0 20 10 2 2 0 0 0 26 47 1389 30 26 4 24 24 205 414 18
202 0 1 2 -114747236 -105169061 42383340 -23166597 44 42 33 42 42 29 29 0 0 0 44 43 1305 175 117 58 42 42 630 0 0
204 0 1 2 -117621698 -94255656 39341862 -27128846 44 42 32 42 42 24 24 1 0 0 44 43 1312 165 116 49 42 42 630 0 0
206 0 1 2 -121823305 -107909930 67335042 -40684231 48 45 20 46 45 19 19 1 0 0 48 45 1346 150 111 39 46 46 682 6 1
208 0 1 2 -52762752 -79332357 31017016 -94857234 25 5 0 14 7 3 3 0 0 0 25 47 1393 25 19 6 23 23 155 412 18
210 0 1 0 25972478 -85221880 -34898117 -106162073 36 1 0 5 1 0 0 0 0 0 36 71 1893 6 6 0 34 34 77 748 34
212 0 1 0 25294216 -88105864 -30427076 -106129599 34 1 0 7 1 0 0 0 0 0 34 67 1786 8 8 0 32 32 96 682 31
214 0 1 0 35278542 -90159136 -41942467 -103427469 42 0 0 0 0 0 0 0 0 0 42 83 2182 0 0 0 40 40 76 885 40
216 0 1 0 31950768 -98989783 -30089364 -103829616 39 0 0 4 1 0 0 0 0 0 39 77 2104 4 4 0 37 37 91 845 37
218 0 1 0 10491616 -76475268 -20415389 -114184328 39 2 1 5 2 1 1 0 0 0 39 75 2001 10 8 2 37 37 105 801 35
220 0 1 0 26526262 -65250147 -46876718 -113698431 37 0 0 8 1 3 2 1 0 0 37 72 1940 14 8 6 35 35 108 801 35
222 0 1 0 35201348 -92266144 -34691661 -108423561 37 0 0 3 0 0 0 0 0 0 37 73 1913 3 3 0 35 35 66 793 35
224 0 1 0 12718402 -57364546 -44923548 -109912397 36 1 0 8 2 3 3 0 0 0 36 69 1745 15 9 6 34 34 95 706 33
226 0 1 0 21880195 -80956958 -31525535 -108159885 32 1 0 8 2 0 0 0 0 0 32 63 1536 9 9 0 30 30 97 603 29
228 0 1 0 29917369 -89147848 -32475552 -107934906 32 0 0 7 0 0 0 0 0 0 32 63 1600 7 7 0 30 30 85 630 30
230 0 1 0 32380177 -103065157 -21658352 -108041002 32 0 0 3 0 0 0 0 0 0 32 63 1633 3 3 0 30 30 63 660 30
232 0 1 0 31841620 -85845404 -33812786 -111016001 29 0 0 9 0 0 0 0 0 0 29 57 1417 9 9 0 27 27 95 560 27
234 0 1 0 32647660 -99210661 -23986847 -109286774 31 0 0 3 0 0 0 0 0 0 31 61 1535 3 3 0 29 29 64 609 29
236 0 1 0 8107400 -69679353 -23277635 -113106623 33 4 0 8 4 1 1 0 0 0 33 61 1547 14 12 2 31 31 119 565 27
238 0 1 0 33346157 -102528955 -24123009 -106572635 36 0 0 4 0 0 0 0 0 0 35 71 1805 4 4 0 33 34 94 690 33
240 0 1 2 -11825913 -95954780 -11292862 -77943045 28 4 0 15 6 0 0 0 0 0 28 28 530 19 19 0 26 26 154 169 22
242 0 1 1 -43105219 -6915355 -51191672 -101165441 43 0 0 0 0 1 1 0 0 0 43 0 753 2 0 2 41 41 52 246 41
244 0 1 1 -52130092 46059407 -83517414 -111999909 53 0 0 0 0 2 2 0 0 0 53 0 865 4 0 4 51 51 15 399 51
246 0 1 0 -4597277 -70649700 -27331365 -96286752 36 0 0 13 3 0 0 0 0 0 36 32 723 13 13 0 34 34 145 254 34
248 0 1 0 32571743 -100429830 -39871972 -91562684 38 0 0 9 0 0 0 0 0 0 38 49 811 9 9 0 36 36 102 283 36
250 0 1 1 -37012139 -11071897 -52783927 -100092116 40 0 0 0 0 0 0 0 0 0 40 0 670 0 0 0 38 38 56 214 38
252 0 1 2 -45805114 -39785674 -16988044 -98036068 46 4 0 7 4 3 3 0 0 0 46 18 799 17 11 6 44 44 121 276 40
254 0 1 2 -6953141 -100377914 -4862260 -85242780 29 4 2 12 5 0 0 0 0 0 29 55 887 18 18 0 27 27 161 237 23
256 0 1 2 -44541084 -44178953 10595357 -116419301 41 4 1 13 4 12 12 0 5 0 41 67 900 47 18 29 39 39 174 314 35
258 0 1 2 -29389487 -95497213 -1167382 -72718252 38 7 2 11 8 2 2 0 0 0 38 69 1057 24 20 4 36 36 164 292 29
260 0 1 0 -25975770 -110599934 -26054633 -29916981 27 11 4 20 13 2 2 0 0 0 27 49 837 39 35 4 25 25 241 154 14
262 0 1 0 -14452366 -112234296 -15060097 -51569008 24 6 1 16 10 0 0 0 0 0 24 47 718 23 23 0 22 22 184 149 15
264 0 1 0 -18363938 -114640940 -33327710 -25328689 25 8 2 20 12 0 0 0 0 0 25 49 701 30 30 0 23 23 212 135 15
266 0 1 0 -15343205 -110607605 -33386152 -33720379 27 7 1 19 11 0 0 0 0 0 27 53 775 27 27 0 25 25 225 172 18
268 0 1 2 -29647841 -105317973 -16910911 -41532844 27 11 4 17 13 1 1 0 0 0 27 49 695 34 32 2 25 25 220 126 14
270 0 1 0 4711811 -80844881 -39331220 -81285215 30 1 0 17 7 0 0 0 0 0 30 59 928 18 18 0 28 28 160 312 27
272 0 1 0 28908209 -102433821 -30421985 -94989859 33 0 0 9 0 0 0 0 0 0 33 65 927 9 9 0 31 31 101 339 31
274 0 1 0 29457249 -91441469 -48063012 -89640569 42 0 0 2 0 0 0 0 0 0 42 83 1190 2 2 0 40 40 55 468 40
276 0 1 0 31798590 -99520696 -31473124 -99053649 34 0 0 6 0 0 0 0 0 0 34 67 999 6 6 0 32 32 94 384 32
278 0 1 0 31055192 -104954476 -31281375 -94213111 34 0 0 8 0 0 0 0 0 0 34 67 1049 8 8 0 32 32 91 384 32
280 0 1 0 34304399 -95693580 -47430457 -90343980 42 0 0 1 0 0 0 0 0 0 42 83 1334 1 1 0 40 40 60 500 40
282 0 1 3 -21598520 -120052542 -28207118 -20563428 30 10 2 24 15 0 0 0 0 0 30 59 1070 36 36 0 28 28 259 251 18
284 0 1 0 34161386 -100784068 -33845209 -98519935 32 0 0 9 0 0 0 0 0 0 32 63 1099 9 9 0 30 30 95 416 30
286 0 1 0 4317151 -34142251 -74554515 -94327456 48 2 0 2 2 1 1 0 0 0 48 93 1434 6 4 2 46 46 48 528 44
288 0 1 0 26812797 -87714729 -34588328 -102003352 32 1 0 7 2 0 0 0 0 0 32 63 1068 8 8 0 30 30 96 377 29
290 0 1 0 -4105275 -115374626 -13948092 -61643322 29 5 1 16 8 0 0 0 0 0 29 57 1036 22 22 0 27 27 181 324 22
292 0 1 0 23768017 -100227274 -36214509 -82927470 28 2 0 19 4 0 0 0 0 0 28 55 1010 21 21 0 26 26 162 357 24
294 0 1 3 -21595930 -121549159 -40468611 -11376036 26 16 0 18 16 0 0 0 0 0 25 51 899 34 34 0 24 24 254 104 8
296 0 1 0 12670032 -113327125 -33772234 -60107752 27 3 0 17 11 0 0 0 0 0 27 53 989 20 20 0 25 25 188 319 22
298 0 1 0 23865452 -48612552 -78736838 -94686723 42 0 0 0 0 0 0 0 0 0 42 83 1163 0 0 0 40 40 20 416 40
300 0 1 2 -54497192 -20435107 -7839089 -112476278 44 6 0 14 6 4 1 3 8 0 44 83 1949 36 20 16 42 42 191 714 36
302 0 1 0 30654565 -86550234 -40272172 -103005255 39 0 0 7 0 0 0 0 0 0 39 77 1783 7 7 0 37 37 86 656 37
304 0 1 2 -26166906 -34969238 -7600094 -129870330 48 3 0 9 3 12 10 3 2 0 47 89 1998 39 12 27 46 46 133 832 43
306 0 1 0 -593396 -49613570 -31530240 -117491058 47 1 1 4 1 1 1 1 0 0 47 89 2007 9 6 3 45 45 78 813 44
308 0 1 0 -987718 -55937721 -38431952 -105982090 47 2 0 3 2 1 0 1 0 0 47 91 2173 7 5 2 45 45 79 934 43
310 0 1 0 33194795 -92852765 -38167806 -102211678 42 0 0 2 0 0 0 0 0 0 42 83 1968 2 2 0 40 40 71 817 40
312 0 1 0 3495002 -67373255 -35183931 -101719809 45 2 1 10 2 1 1 1 0 0 44 87 2089 16 13 3 42 43 114 794 40
314 0 1 0 -10951959 -44285904 -29255457 -115765306 44 0 0 5 1 1 1 0 2 0 43 87 2108 9 5 4 42 42 80 842 41
316 0 1 2 -54256968 -56601315 36269510 -122755805 48 7 2 13 8 12 11 1 4 0 47 85 1941 50 22 28 46 46 206 651 39
318 0 1 2 -37623569 -73450074 17823507 -107459967 47 7 2 14 8 9 9 0 2 0 47 85 2024 43 23 20 45 45 196 727 38
320 0 1 0 18666365 -82932163 -30858169 -103356301 34 2 0 16 2 0 0 0 0 0 34 66 1610 18 18 0 32 32 149 568 30
322 0 1 0 34297734 -86708445 -36866647 -109590790 36 0 0 13 0 1 1 0 0 0 36 71 1770 15 13 2 34 34 134 677 34
324 0 1 0 32034873 -101660108 -27451261 -102828832 36 0 0 2 0 0 0 0 0 0 36 71 1675 2 2 0 34 34 66 612 34
326 0 1 0 16550597 -91113033 -25085602 -98318958 33 1 0 18 3 0 0 0 0 0 33 65 1618 19 19 0 31 31 166 590 30
328 0 1 0 34048285 -98923015 -33538845 -101499147 36 0 0 9 1 0 0 0 0 0 36 71 1728 9 9 0 34 34 111 646 34
330 0 1 0 45475883 -90678101 -66875586 -87436516 46 1 0 4 1 0 0 0 0 0 45 80 975 5 5 0 43 44 82 417 42
332 0 1 0 12654236 -70604332 -45351683 -96554484 44 1 0 4 1 1 1 0 0 0 44 85 1248 7 5 2 42 42 75 472 41
334 0 1 0 19930800 -102051112 -30729459 -86944879 41 1 0 7 3 0 0 0 0 0 40 80 1099 8 8 0 39 39 117 408 37
336 0 1 0 226357 -81469104 -32375967 -86535466 50 3 1 7 3 4 4 0 0 0 50 97 1379 19 11 8 48 48 133 489 45
338 0 1 0 18494234 -97856591 -38171753 -82405873 46 1 0 3 2 0 0 0 0 0 46 89 1243 4 4 0 44 44 86 447 43
340 0 1 0 15326327 -53991844 -72864069 -88529383 48 0 0 0 0 0 0 0 0 0 48 95 1365 0 0 0 46 46 18 460 46
342 0 1 0 21419985 -48165999 -82910393 -89025535 48 0 0 0 0 0 0 0 0 0 48 95 1435 0 0 0 46 46 24 498 46
344 0 1 0 17882506 -67658492 -65172947 -84341563 50 0 0 2 1 0 0 0 0 0 50 91 1186 2 2 0 48 48 56 480 48
346 0 1 0 17163909 -45649760 -79556946 -91808902 47 0 0 0 0 0 0 0 0 0 46 90 1239 0 0 0 44 45 17 439 44
348 0 1 0 -10313632 -20856243 -43021997 -125671732 37 0 0 0 0 2 2 0 0 0 37 73 1560 4 0 4 35 35 10 556 35
350 0 1 0 7993912 -60212265 -36951574 -110343830 36 0 0 0 0 0 0 0 0 0 36 71 1382 0 0 0 34 34 20 504 34
352 0 1 0 33471183 -110368699 -26941606 -95257812 35 0 0 2 0 0 0 0 0 0 35 67 1086 2 2 0 33 33 67 382 33
354 0 1 0 35062569 -102902914 -33893387 -97151767 34 0 0 2 0 0 0 0 0 0 34 67 1143 2 2 0 32 32 47 352 32
356 0 1 2 -15710261 -79523223 8755120 -113443612 36 2 0 5 2 2 2 0 0 0 36 71 1378 11 7 4 34 34 105 447 32
358 0 1 0 14183321 -65773988 -47959766 -100631146 34 0 0 0 0 0 0 0 0 0 34 67 1201 0 0 0 32 32 22 413 32
360 0 1 2 -15100593 -62843615 -9900078 -110537886 44 5 1 14 7 5 4 1 0 0 44 77 1705 30 20 10 42 42 185 703 37
362 0 1 0 12900702 -75552141 -28809755 -108728135 38 2 0 8 2 1 1 0 0 0 38 73 1668 12 10 2 36 36 105 671 34
364 0 1 0 28961207 -59580854 -64975324 -104105778 42 0 0 0 0 0 0 0 0 0 42 83 1895 0 0 0 40 40 37 794 40
366 0 1 0 8728921 -49705203 -54299546 -105254958 44 2 0 5 3 1 1 0 0 0 44 84 1918 9 7 2 42 42 84 840 40
368 0 1 1 -33489370 10971758 -60197377 -112826753 60 1 0 4 1 16 15 5 12 0 60 123 2671 53 5 48 58 58 81 1203 57
370 0 1 0 31346228 -83179729 -44756625 -103017089 37 0 0 0 0 0 0 0 0 0 37 73 1642 0 0 0 35 35 44 643 35
372 0 1 0 13136882 -81570327 -23278154 -108912439 39 2 0 4 2 1 1 0 0 0 39 75 1705 8 6 2 37 37 93 718 35
374 0 1 0 18969109 -55600286 -67102700 -97419694 45 0 0 0 0 0 0 0 0 0 45 89 1980 0 0 0 43 43 31 817 43
376 0 1 0 -2152217 -3212488 -86401313 -105405461 47 2 0 4 2 6 1 5 0 0 47 91 2052 18 6 12 45 45 62 904 43
378 0 1 0 -8347147 -55027275 -28783321 -106177758 45 6 3 9 8 4 4 0 0 0 44 86 1915 26 18 8 43 43 156 690 37
380 0 1 0 28495959 -73371507 -53581970 -102295183 40 0 0 0 0 0 0 0 0 0 40 79 1955 0 0 0 38 38 45 786 38
382 0 1 0 34288952 -99593483 -28409407 -106293933 35 0 0 1 0 0 0 0 0 0 35 69 1718 1 1 0 33 33 57 692 33
384 0 1 0 28119886 -76302226 -50424067 -102077610 38 0 0 0 0 0 0 0 0 0 38 75 1762 0 0 0 36 36 40 716 36
386 0 1 0 33327683 -78357426 -46749084 -107237796 37 0 0 5 0 0 0 0 0 0 37 73 1702 5 5 0 35 35 61 664 35
388 0 1 0 10604099 -81911006 -16024598 -112375376 33 2 1 6 2 0 0 0 0 0 33 65 1550 9 9 0 31 31 104 609 29
390 0 1 0 1441014 -41135705 -78374187 -81576485 62 2 0 3 2 2 2 0 0 0 62 73 765 9 5 4 60 60 99 400 58
392 0 1 0 15762413 -85153339 -44524150 -86247118 45 0 0 4 1 0 0 0 0 0 44 19 355 4 4 0 43 43 87 252 42
394 0 1 0 33910814 -65554816 -80758208 -87690922 48 0 0 1 0 0 0 0 0 0 48 20 241 1 1 0 46 46 50 283 46
396 0 1 0 52028490 -54201484 -107117928 -90586860 50 0 0 1 0 0 0 0 0 0 49 73 442 1 1 0 48 48 31 328 48
398 0 1 0 36516384 -58793590 -76234046 -100262087 43 0 0 2 0 1 1 0 0 0 43 32 398 4 2 2 41 41 51 287 41
400 0 1 1 -42435133 2535201 -63812729 -95894887 52 2 1 2 2 0 0 0 0 0 52 14 493 5 5 0 50 50 62 288 48
402 0 1 0 32992372 -105232106 -38958888 -87648128 38 1 0 12 3 0 0 0 0 0 38 52 535 13 13 0 36 36 150 245 35
404 0 1 0 64183377 -91406903 -75604941 -97121943 41 0 0 5 0 0 0 0 0 0 41 65 426 5 5 0 39 39 68 273 39
406 0 1 0 64826444 -102213578 -64206877 -97244384 37 0 0 9 0 0 0 0 0 0 37 73 480 9 9 0 35 35 114 245 35
408 0 1 0 51501723 -101459911 -52069681 -97147911 37 1 1 13 4 0 0 0 0 0 37 49 280 15 15 0 35 35 151 238 34
410 0 1 0 68491955 -100320621 -61800779 -105956682 36 0 0 3 0 0 0 0 0 0 35 31 150 3 3 0 33 34 59 231 33
412 0 1 1 -36676970 -18997912 -36839471 -107363973 33 0 0 6 0 0 0 0 0 0 33 0 51 6 6 0 31 31 90 185 31
414 0 1 2 -26819324 -34717897 -25996858 -112629809 32 0 0 2 0 0 0 0 0 0 32 0 51 2 2 0 30 30 54 199 30
416 0 1 1 -39348235 -16114064 -42068468 -101723989 33 0 0 14 0 0 0 0 0 0 33 0 2 14 14 0 31 31 132 184 31
418 0 1 1 -32009147 -26362768 -39538099 -102919087 33 0 0 0 0 0 0 0 0 0 33 0 0 0 0 0 31 31 57 180 31
420 0 1 0 30480563 -97449022 -47952004 -85031389 42 0 0 1 0 0 0 0 0 0 42 83 1244 1 1 0 40 40 60 381 40
422 0 1 0 30200710 -66631837 -70542441 -91585689 43 0 0 0 0 0 0 0 0 0 43 85 1203 0 0 0 41 41 47 401 41
424 0 1 2 -41115094 -64652219 -1658323 -91999169 45 5 2 10 5 5 5 0 1 0 45 83 1290 28 17 11 43 43 157 380 38
426 0 1 0 -15769527 -71082847 -29830002 -81306969 39 6 1 8 6 4 4 0 0 0 39 71 1024 23 15 8 37 37 142 291 31
428 0 1 0 32509633 -99220279 -42694034 -89596773 41 0 0 2 0 0 0 0 0 0 40 80 1044 2 2 0 38 39 58 341 38
430 0 1 0 3281048 -74472264 -29203573 -98419073 37 3 0 3 3 1 1 0 0 0 37 71 1028 8 6 2 35 35 74 317 32
432 0 1 0 36731110 -97164538 -37051017 -100469948 32 0 0 1 0 0 0 0 0 0 32 63 858 1 1 0 30 30 38 300 30
434 0 1 0 36329916 -109935931 -26053025 -99146054 30 0 0 1 0 0 0 0 0 0 30 59 901 1 1 0 28 28 51 280 28
436 0 1 0 36501335 -116285422 -18894918 -99810757 29 0 0 1 0 0 0 0 0 0 29 57 837 1 1 0 27 27 65 270 27
438 0 1 0 37289030 -103542886 -31470322 -100446050 31 0 0 2 0 0 0 0 0 0 31 61 877 2 2 0 29 29 52 290 29
440 0 1 0 48601650 -74649580 -71784594 -100528964 33 0 0 1 0 0 0 0 0 0 33 65 735 1 1 0 31 31 26 275 31
442 0 1 0 31809983 -66606209 -66683546 -97091580 36 0 0 1 0 0 0 0 0 0 36 71 961 1 1 0 34 34 31 336 34
444 0 1 0 6222011 -53269037 -46183151 -105993012 34 0 0 1 0 0 0 0 0 0 34 16 417 1 1 0 32 32 35 224 32
446 0 1 0 34018122 -106225920 -33886056 -93305313 33 0 0 0 0 0 0 0 0 0 33 65 930 0 0 0 31 31 49 310 31
448 0 1 0 35448422 -94645969 -42879268 -96594057 35 0 0 2 0 0 0 0 0 0 35 69 966 2 2 0 33 33 49 328 33
450 0 1 0 10630223 -89787152 -28640204 -89764459 34 4 0 14 4 2 2 0 0 0 34 63 1239 22 18 4 32 32 166 527 28
452 0 1 0 47588913 -71261249 -65413251 -109397389 40 1 0 4 1 1 1 0 0 0 40 77 1497 7 5 2 38 38 66 703 37
454 0 1 0 32019665 -70679067 -49048567 -111140414 33 0 0 2 0 0 0 0 0 0 33 65 1309 2 2 0 31 31 41 619 31
456 0 1 0 30922115 -76796648 -44718314 -108880987 34 0 0 1 0 0 0 0 0 0 34 67 1411 1 1 0 32 32 40 640 32
458 0 1 0 1513526 -88441568 -6405704 -104738109 31 3 1 11 5 0 0 0 0 0 31 61 1291 15 15 0 29 29 119 541 26
460 0 1 0 34697302 -96108359 -32188003 -105997043 37 0 0 2 0 0 0 0 0 0 37 73 1466 2 2 0 35 35 62 729 35
462 0 1 0 14034424 -83095277 -23130403 -106737477 32 1 1 9 3 0 0 0 0 0 32 63 1321 11 11 0 30 30 113 607 29
464 0 1 0 30755030 -77234757 -41259279 -110969324 31 0 0 8 0 0 0 0 0 0 31 61 1310 8 8 0 29 29 83 609 29
466 0 1 0 3071081 -74565672 -19754841 -106072689 31 4 0 19 5 2 2 0 0 0 31 57 1210 27 23 4 29 29 169 518 25
468 0 1 0 4229682 -84595257 -9466896 -108474840 28 2 2 10 5 0 0 0 0 0 28 56 1121 14 14 0 26 26 121 377 24
470 0 1 2 -10030066 -91999726 144520 -97010648 30 6 0 10 7 2 2 0 0 0 30 55 1176 20 16 4 28 28 144 456 22
472 0 1 0 34043529 -95541385 -26186919 -111014621 30 0 0 2 0 0 0 0 0 0 30 59 1241 2 2 0 28 28 60 560 28
474 0 1 0 30243125 -89955210 -28807921 -110567231 28 0 0 6 0 0 0 0 0 0 28 55 1168 6 6 0 26 26 79 520 26
476 0 1 2 -10009733 -93551920 -8335706 -85092785 29 6 0 17 10 2 2 0 0 0 29 53 1108 27 23 4 27 27 192 415 21
478 0 1 3 -114232865 -98504373 -29298165 34449784 59 57 19 57 57 6 6 0 0 0 59 59 1254 145 133 12 57 57 855 0 0
480 0 1 0 10987298 -55099377 -67649407 -88130334 49 2 0 2 2 1 1 0 0 0 49 95 970 6 4 2 47 47 65 405 45
482 0 1 0 45523346 -88519052 -64258542 -91935909 41 0 0 5 0 0 0 0 0 0 41 81 940 5 5 0 39 39 58 390 39
484 0 1 0 43264489 -76455518 -77109862 -88479570 47 0 0 2 0 0 0 0 0 0 46 92 1136 2 2 0 44 45 39 453 44
486 0 1 0 35054328 -63573757 -89578224 -82272216 48 0 0 0 0 0 0 0 0 0 48 95 1142 0 0 0 46 46 36 457 46
488 0 1 0 3257200 -43810328 -69031273 -89190004 51 2 0 5 3 2 2 0 0 0 51 99 1281 11 7 4 49 49 86 495 47
490 0 1 0 66411265 -109966924 -64812357 -91725813 45 0 0 2 0 0 0 0 0 0 45 69 457 2 2 0 43 43 72 353 43
492 0 1 0 55715743 -77554367 -89706718 -89549798 44 0 0 0 0 0 0 0 0 0 44 85 658 0 0 0 42 42 35 356 42
494 0 1 0 38019438 -100935910 -48254153 -88384907 36 1 0 13 3 0 0 0 0 0 36 71 776 14 14 0 34 34 121 329 33
496 0 1 0 -11971329 -84335768 -24525323 -77641495 39 6 0 11 6 2 2 0 0 0 39 73 957 21 17 4 37 37 147 329 31
498 0 1 0 65900415 -83432088 -85313930 -96832966 42 0 0 1 0 0 0 0 0 0 42 71 534 1 1 0 40 40 52 348 40
500 0 1 0 33555654 -101968130 -41130020 -89454771 39 0 0 1 0 0 0 0 0 0 39 77 1007 1 1 0 37 37 63 374 37
502 0 1 0 31103082 -100937923 -43826632 -86556528 39 0 0 1 0 0 0 0 0 0 39 77 1018 1 1 0 37 37 50 368 37
504 0 1 0 47020092 -78479935 -75064005 -92655510 38 0 0 0 0 0 0 0 0 0 38 75 845 0 0 0 36 36 41 345 36
506 0 1 0 48405173 -106795521 -51483985 -89607822 39 0 0 4 0 0 0 0 0 0 39 77 873 4 4 0 37 37 84 366 37
508 0 1 3 -71855598 -147810522 7316907 8284319 55 50 17 51 51 1 1 0 0 0 54 65 888 120 118 2 52 53 771 20 2
510 0 1 1 -54115416 28601719 -78556581 -97859506 54 0 0 0 0 0 0 0 0 0 54 0 46 0 0 0 52 52 19 312 52
512 0 1 1 -51877054 40064271 -81478979 -107926640 57 0 0 1 0 1 0 1 0 0 57 0 277 3 1 2 55 55 21 389 55
514 0 1 0 8660870 -32529710 -82270048 -94037336 51 0 0 0 0 0 0 0 0 0 51 31 463 0 0 0 49 49 17 375 49
516 0 1 1 -15138895 -5541081 -77648075 -102213678 53 0 0 0 0 0 0 0 0 0 53 16 334 0 0 0 51 51 11 404 51
518 0 1 0 -9026517 -16551176 -80885105 -92468035 56 4 0 8 5 6 6 0 0 0 55 45 614 24 12 12 54 54 110 403 49
520 0 1 1 -30017132 7547950 -70757496 -107202430 50 1 0 2 1 0 0 0 0 0 50 6 433 3 3 0 48 48 31 371 47
522 0 1 1 -29560765 -805390 -66353943 -104445062 49 0 0 0 0 0 0 0 0 0 49 4 293 0 0 0 47 47 21 372 47
524 0 1 1 -42615092 7149134 -54995205 -111806437 43 0 0 0 0 0 0 0 0 0 43 0 246 0 0 0 41 41 14 302 41
526 0 1 1 -39248435 15174350 -64699873 -112617072 42 0 0 0 0 0 0 0 0 0 42 2 451 0 0 0 40 40 12 320 40
528 0 1 0 59747730 -58370362 -99911686 -101050976 39 0 0 0 0 0 0 0 0 0 39 71 584 0 0 0 37 37 16 329 37
530 0 1 0 66483398 -86936450 -79572224 -99848654 37 0 0 0 0 0 0 0 0 0 37 61 480 0 0 0 35 35 43 280 35
532 0 1 0 38058449 -99689276 -40622959 -97175465 34 0 0 3 1 0 0 0 0 0 34 40 391 3 3 0 32 32 78 256 32
534 0 1 0 60761653 -101445771 -61723081 -97078239 35 0 0 10 2 0 0 0 0 0 35 69 487 10 10 0 33 33 117 263 33
536 0 1 1 -26111132 -14899875 -49051249 -110343648 36 0 0 0 0 0 0 0 0 0 35 0 70 0 0 0 34 34 34 230 33
538 0 1 2 -38848551 -44795247 -8609034 -107292270 39 4 0 5 4 1 1 0 0 0 39 6 204 11 9 2 37 37 102 237 33
539 1 1 1 -22965541 -22821578 -41342525 -113689059 30 0 0 0 0 0 0 0 0 0 30 0 104 0 0 0 28 28 31 239 28
541 1 1 0 6976800 -53714980 -29296441 -122471892 34 2 1 7 4 10 10 0 0 0 34 1 18 30 10 20 32 32 92 240 30
543 1 1 2 -78147115 -72586608 27557349 -75352851 42 12 4 22 14 12 12 0 0 0 41 0 104 62 38 24 40 40 275 195 28
545 1 1 0 8236280 -108257560 -1735118 -96912223 32 3 1 6 3 0 0 0 0 0 32 59 843 10 10 0 30 30 94 293 27
547 1 1 1 -66518563 3457511 1678477 -138205034 29 2 0 2 2 2 0 2 0 0 29 4 337 8 4 4 27 27 38 290 25
549 1 1 2 -79479581 -15199608 1335569 -105027787 36 5 1 5 5 5 2 3 0 0 36 63 2002 21 11 10 34 34 96 236 29
551 1 1 1 -103384631 58118894 -20317410 -130409672 30 1 0 3 1 7 6 1 2 0 30 55 1950 20 4 16 28 28 56 0 27
553 1 1 1 -105738405 79177686 -60281775 -112791755 33 0 0 0 0 2 0 2 1 0 33 65 2390 5 0 5 31 31 7 30 31
555 1 1 1 -79657377 13066105 -12285274 -116312310 35 2 0 3 2 11 6 7 0 0 35 62 2451 29 5 24 33 33 64 210 31
557 1 1 1 -78981979 10479489 -44840887 -89088942 35 0 0 0 0 0 0 0 0 0 35 69 2272 0 0 0 33 33 15 10 33
559 1 1 0 8893305 -26649445 -60869911 -119895656 33 0 0 3 2 6 6 0 0 0 33 10 164 15 3 12 31 31 46 308 31
561 1 1 1 -32714561 2543532 -51869958 -118844545 32 0 0 0 0 0 0 0 0 0 32 0 28 0 0 0 30 30 11 239 30
563 1 1 1 -32581934 3202227 -51854560 -119739339 31 0 0 0 0 0 0 0 0 0 31 0 280 0 0 0 29 29 10 228 29
565 1 1 0 -6457766 -30104478 -47422957 -115236820 29 0 0 0 0 0 0 0 0 0 29 8 310 0 0 0 27 27 24 238 27
567 1 1 0 24219633 -58208724 -59512321 -105931565 29 0 0 0 0 0 0 0 0 0 29 16 298 0 0 0 27 27 18 230 27
569 1 1 1 -68908389 25014774 -19006709 -133223823 30 1 0 3 1 1 1 0 4 0 30 39 872 10 4 6 28 28 43 297 27
571 1 1 2 -59083015 -40538640 29550442 -126113097 29 5 3 8 6 4 4 0 1 0 28 16 529 25 16 9 26 27 119 202 21
573 1 1 2 -45577946 -9020400 -2698529 -141319694 28 2 1 6 2 7 6 1 0 0 28 0 146 23 9 14 26 26 78 235 24
575 1 1 1 -55680617 7780956 -21241812 -124939935 30 0 0 0 0 1 0 1 6 0 30 8 193 8 0 8 28 28 27 303 28
576 1 1 2 -70511013 -32735122 26387075 -122620240 27 1 1 5 2 0 0 0 0 0 27 4 287 7 7 0 25 25 81 181 24
577 1 1 0 -7090836 -31632309 -36868862 -122577132 29 0 0 0 0 1 0 1 0 0 29 6 232 2 0 2 27 27 36 246 27
578 1 1 1 -74801369 70107558 -104264577 -92498048 51 0 0 0 0 0 0 0 0 0 50 0 139 0 0 0 48 49 5 88 48
580 1 1 1 -69636682 66587396 -98753430 -99799361 50 0 0 0 0 0 0 0 0 0 50 0 259 0 0 0 48 48 9 119 48
582 1 1 1 -63594810 69133716 -110007872 -95986825 49 0 0 1 0 0 0 0 0 0 49 0 471 1 1 0 47 47 21 135 47
584 1 1 1 -79095702 86242878 -97934050 -108704146 44 2 1 3 2 2 2 0 0 0 44 0 377 10 6 4 42 42 50 129 40
586 1 1 1 -93611564 13474402 -34454407 -86304922 50 11 4 12 12 2 2 0 0 0 50 0 593 31 27 4 48 48 182 191 37
588 1 1 1 -114257346 57436812 -44230573 -100312282 47 4 2 4 4 0 0 0 0 0 47 0 637 10 10 0 45 45 76 123 41
590 1 1 1 -81692434 80261072 -91313964 -109069240 51 0 0 0 0 1 1 0 0 0 51 0 328 2 0 2 49 49 7 140 49
592 1 1 1 -66403730 62358480 -98716838 -99195853 48 0 0 0 0 0 0 0 0 0 48 0 750 0 0 0 46 46 16 180 46
594 1 1 1 -57187259 57555918 -102087734 -98732041 48 0 0 1 0 0 0 0 0 0 48 0 752 1 1 0 46 46 21 184 46
596 1 1 1 -52873200 53446029 -84894542 -115109697 50 1 0 3 3 1 0 1 0 0 49 0 358 6 4 2 47 48 41 363 46
598 1 1 1 -71847254 101864715 -128629441 -100580573 50 0 0 1 0 2 2 0 0 0 50 0 469 5 1 4 48 48 18 96 48
600 1 1 1 -80461352 42149094 -69288394 -92666714 50 7 3 13 10 4 4 0 0 0 50 0 788 31 23 8 48 48 175 182 41
602 1 1 1 -81989202 47846682 -75149529 -91275767 50 4 0 8 7 0 0 0 0 0 50 0 400 12 12 0 48 48 114 164 44
604 1 1 3 -103940047 -78650753 -12320278 -7016817 52 40 16 47 44 0 0 0 0 0 52 4 334 103 103 0 50 50 662 20 10
606 1 1 1 -116778929 -3995186 -56707311 -20325968 53 20 10 28 26 6 5 2 0 0 53 4 436 71 58 13 51 51 386 112 31
608 1 1 3 -104237869 -47909111 -27019755 -18844002 51 26 19 27 27 0 0 0 0 0 51 2 306 72 72 0 49 49 408 69 23
610 1 1 3 -96575505 -60186554 -36765999 -3998175 47 31 17 35 34 2 0 2 0 0 47 4 288 87 83 4 45 45 520 35 14
611 1 1 1 -61928663 28109956 -64253983 -101592076 33 0 0 6 0 3 3 0 0 0 33 0 0 12 6 6 31 31 88 61 31
613 1 1 2 -91844080 -57799725 21974659 -66034482 40 17 9 25 19 9 6 3 1 0 39 0 15 70 51 19 38 38 354 144 21
615 1 1 1 -99739668 16098375 -12057504 -105041523 32 3 1 4 3 2 2 1 0 0 32 0 0 13 8 5 30 30 87 27 27
617 1 1 1 -68962810 33065926 -63672931 -101372295 32 0 0 4 1 1 1 0 0 0 32 0 0 6 4 2 30 30 67 40 30
619 1 1 1 -129788976 41351306 -143922 -111590083 35 4 2 8 6 4 4 0 0 0 35 0 19 22 14 8 33 33 122 59 28
621 1 1 2 -95339371 -46198587 10414443 -66436626 46 12 7 25 17 17 17 2 0 0 46 0 15 80 44 36 44 44 322 178 32
623 1 1 1 -67336691 11907686 -36170120 -109103260 33 0 0 3 0 0 0 0 0 0 33 0 0 3 3 0 31 31 60 62 31
625 1 1 1 -43366942 -8673968 -44125286 -102778831 35 2 0 14 2 1 0 1 0 0 35 1 27 18 16 2 33 33 137 93 31
627 1 1 1 -86003487 27868221 -37519752 -105082287 33 3 1 3 3 1 1 0 0 0 33 0 0 9 7 2 31 31 78 56 28
629 1 1 1 -70151232 5843020 -23633466 -110327165 33 3 1 9 4 0 0 0 1 0 33 1 31 14 13 1 31 31 114 98 28
631 1 1 1 -84345917 9238065 -26181325 -99262364 33 3 1 5 3 1 1 0 0 0 33 0 0 11 9 2 31 31 96 42 28
633 1 1 1 -70831234 21286604 -56392846 -93822779 35 0 0 10 3 3 3 0 0 0 34 0 0 16 10 6 32 33 133 60 32
635 1 1 1 -65344863 57224119 -87040344 -105274142 35 0 0 2 0 4 4 0 0 0 34 0 0 10 2 8 33 33 31 66 33
637 1 1 2 -97171097 -4108464 7848199 -104246378 44 8 3 20 9 13 13 0 2 0 44 0 4 59 31 28 42 42 236 150 34
639 1 1 1 -97850683 -1107567 -17157928 -83900400 40 7 0 16 7 7 7 0 0 0 40 0 0 37 23 14 38 38 206 78 31
641 1 1 2 -72629138 -23581468 32478059 -129513934 36 8 2 10 9 12 9 4 5 0 36 16 322 50 20 30 34 34 152 378 26
643 1 1 1 -80529025 21178398 -44238971 -97009618 34 3 0 4 3 1 1 0 0 0 34 0 0 9 7 2 32 32 76 6 29
645 1 1 1 -94521230 2362632 -6494593 -103066689 31 0 0 3 0 0 0 0 0 0 31 0 0 3 3 0 29 29 63 50 29
647 1 1 1 -86304310 30217685 -33899438 -110385770 32 0 0 3 1 1 1 0 0 0 32 0 0 5 3 2 30 30 70 29 30
648 1 1 1 -94912201 65331085 -58570800 -110540324 41 4 1 12 6 8 8 0 1 0 41 0 0 34 17 17 39 39 130 124 35
649 1 1 1 -78350688 49675564 -79409432 -92962127 37 2 0 3 2 0 0 0 0 0 37 0 6 5 5 0 35 35 51 12 33
650 1 1 1 -85701016 41415120 -61711897 -93324040 46 4 1 14 6 4 4 0 0 0 46 0 0 27 19 8 44 44 160 87 40
652 1 1 1 -63913621 69572494 -98524088 -106428627 47 0 0 5 0 2 2 0 0 0 47 0 0 9 5 4 45 45 61 157 45
654 1 1 1 -76748237 44015264 -78509195 -88777649 46 5 3 11 7 0 0 0 0 0 46 0 640 19 19 0 44 44 134 35 39
656 1 1 2 -91716546 -36255240 -11766498 -57442865 34 14 10 14 14 2 2 0 0 0 34 0 0 42 38 4 32 32 221 36 18
658 1 1 1 -82688505 18238677 -45917382 -88635867 47 6 4 18 7 4 4 0 0 0 47 0 0 36 28 8 45 45 222 92 39
660 1 1 1 -85366623 67183779 -87694847 -95019724 42 3 1 3 3 1 1 0 0 0 42 0 7 9 7 2 40 40 55 57 37
662 1 1 1 -56812877 17906028 -65569684 -95653610 50 0 0 7 0 3 3 0 0 0 50 0 0 13 7 6 48 48 129 143 48
664 1 1 1 -65205533 35042385 -75161725 -94746184 50 1 0 11 1 2 2 0 0 0 50 0 0 16 12 4 48 48 159 137 47
666 1 1 1 -69870227 54577134 -101956691 -83943492 47 0 0 1 0 0 0 0 0 0 47 0 275 1 1 0 45 45 28 21 45
668 1 1 1 -87187526 59378761 -82591327 -91450170 44 2 1 3 3 0 0 0 0 0 44 0 217 6 6 0 42 42 52 29 40
670 1 1 2 -50639673 -65580219 932902 -77784261 13 11 5 10 10 1 1 0 0 0 13 0 0 28 26 2 11 11 150 0 0
672 1 1 2 -50079075 -79448028 -4929796 -58988922 13 10 3 9 9 0 0 0 0 0 12 0 0 22 22 0 11 11 137 1 1
674 1 1 1 -56440563 50930921 -91049567 -103014994 48 0 0 3 0 1 1 0 0 0 48 0 0 5 3 2 46 46 58 183 46
676 1 1 1 -60920801 65631936 -102878262 -103041910 42 1 0 1 1 1 1 0 0 0 42 0 328 4 2 2 40 40 20 37 39
678 1 1 1 -69023558 33297715 -64558855 -100503261 47 3 0 7 3 1 1 0 0 0 46 0 0 12 10 2 45 45 111 164 42
680 1 1 1 -54959710 26668510 -47245787 -122264673 41 4 3 7 5 6 5 1 0 0 40 0 6 26 14 12 39 39 97 238 34
682 1 1 1 -61116166 12499908 -50958898 -100281350 39 3 0 8 3 5 5 0 0 0 38 0 0 21 11 10 37 37 117 88 33
684 1 1 1 -81572777 17623273 -42821761 -93244809 46 4 1 16 5 3 3 0 0 0 46 0 0 27 21 6 44 44 188 115 40
686 1 1 1 -75221686 -9438165 -24441510 -91025030 46 4 2 17 5 0 0 0 0 0 46 0 0 23 23 0 44 44 180 160 40
687 1 1 1 -76177389 66084558 -93394841 -97190785 46 2 0 5 3 0 0 0 0 0 46 0 13 7 7 0 44 44 67 165 42
688 1 1 2 -57367040 -55240505 -29198683 -54312091 18 14 0 14 14 2 2 0 0 0 18 0 0 32 28 4 16 16 214 2 2
689 1 1 1 -42392666 5808405 -43844627 -119021968 54 0 0 2 0 4 2 2 1 0 54 92 2316 11 2 9 52 52 44 822 52
691 1 1 1 -59558409 37783750 -65167408 -112139957 57 0 0 1 0 5 4 1 0 0 57 111 2485 11 1 10 55 55 11 688 55
693 1 1 1 -72363884 14212010 -32731242 -109369692 51 3 1 4 3 2 2 0 1 0 51 98 2235 13 8 5 49 49 75 541 46
695 1 1 1 -50667462 18499522 -50203993 -113463595 49 1 0 2 1 8 8 0 12 0 49 79 2290 31 3 28 47 47 56 743 46
697 1 1 1 -72804273 27481305 -30196947 -124604187 47 0 0 2 0 3 3 0 0 0 47 42 1447 8 2 6 45 45 20 495 45
699 1 1 1 -77431055 29209798 -36885435 -117683322 49 0 0 0 0 0 0 0 0 0 49 0 902 0 0 0 47 47 14 407 47
701 1 1 1 -74171851 23957159 -46359838 -103873024 57 2 0 4 2 7 7 0 0 0 57 101 2323 20 6 14 55 55 47 625 53
703 1 1 0 8787616 -66251781 -48368103 -92947479 48 0 0 11 0 2 2 0 0 0 48 95 2069 15 11 4 46 46 142 525 46
705 1 1 1 -30096565 -21431787 -34260292 -113227592 48 0 0 3 0 2 2 0 0 0 48 83 2152 7 3 4 46 46 61 575 46
707 1 1 1 -84490341 46257720 -54050400 -106617357 59 5 0 7 5 7 7 1 2 0 59 58 1801 29 12 17 57 57 104 652 52
709 1 1 0 -417205 -20027190 -84258921 -95754213 58 0 0 1 0 5 3 2 0 0 57 95 2179 11 1 10 55 56 47 834 55
711 1 1 0 7251829 -57657382 -49967306 -98345935 51 0 0 8 0 2 2 0 0 0 50 85 2059 12 8 4 49 49 129 651 48
713 1 1 1 -42298370 17606995 -60444355 -115425513 57 0 0 1 0 4 4 0 1 0 57 111 2693 10 1 9 55 55 20 866 55
715 1 1 1 -52435898 -17032563 -24705001 -105557605 48 0 0 2 0 1 1 0 1 0 48 95 2406 5 2 3 46 46 63 595 46
717 1 1 1 -71138098 22684454 -34910325 -115286609 46 0 0 3 2 6 5 2 1 0 46 75 2125 17 3 14 44 44 59 578 44
719 1 1 2 -39992562 -28972895 -20385438 -110337888 45 0 0 2 0 1 1 0 0 0 45 89 2315 4 2 2 43 43 50 558 43
721 1 1 2 -40729809 -32494443 -15289225 -110079697 46 0 0 5 0 4 4 0 0 0 46 85 2123 13 5 8 44 44 91 557 44
723 1 1 1 -58364365 43120596 -68382281 -116877449 43 3 1 4 3 3 3 0 0 0 43 0 448 14 8 6 41 41 57 312 38
725 1 1 2 -75968676 -14239882 6120529 -117251427 44 0 0 15 0 5 5 0 0 0 44 0 783 25 15 10 42 42 152 375 42
728 1 1 2 -92931773 -49074252 -10890163 -43899361 57 22 7 34 25 12 12 0 1 0 57 1 39 88 63 25 55 55 440 198 32
730 1 1 2 -95640160 -38711786 -11717074 -56273598 47 14 2 19 14 0 0 0 0 0 47 0 0 35 35 0 45 45 250 185 31
732 1 1 1 -81879047 -9372561 -53083782 -55909580 53 10 0 18 14 0 0 0 0 0 53 0 0 28 28 0 51 51 229 204 41
734 1 1 2 -102122209 -56365127 -17287988 -24479487 55 21 4 37 26 3 3 0 0 0 54 0 8 68 62 6 53 53 452 279 32
736 1 1 3 -94950649 -61290643 -29222238 -13654169 53 17 4 37 23 0 0 0 0 0 53 0 14 58 58 0 51 51 435 196 34
738 1 1 2 -83726590 -45489318 -14981949 -56196742 51 12 2 27 17 3 3 0 0 0 51 0 0 47 41 6 49 49 337 242 37
740 1 1 2 -94942530 -80595867 10245327 -33054404 46 18 11 24 18 0 0 0 0 0 46 0 0 53 53 0 44 44 330 149 26
742 1 1 3 -90304583 -55874861 -65455064 14737799 53 23 6 39 26 3 3 0 0 0 53 0 0 74 68 6 51 51 476 139 28
744 1 1 3 -74294687 -57485993 -51684880 -13043803 51 19 7 31 22 2 2 1 0 0 51 1 23 62 57 5 49 49 390 147 30
746 1 1 2 -74954874 -36288535 -3799234 -83315375 48 11 7 19 15 2 2 0 0 0 48 0 27 41 37 4 46 46 246 237 35
748 1 1 2 -98961640 -54351125 -2682594 -41897948 44 17 5 26 19 4 4 0 0 0 43 0 31 56 48 8 42 42 332 168 24
750 1 1 2 -84545167 -77280117 -2311814 -33223479 46 20 11 26 25 1 1 0 0 0 46 0 28 59 57 2 44 44 369 166 24
752 1 1 2 -55244614 -62494673 1445799 -83816784 44 10 5 15 15 1 1 0 0 0 43 1 33 32 30 2 42 42 229 215 31
754 1 1 1 -54340653 -6335309 -35304159 -103541664 44 4 1 6 4 0 0 0 0 0 44 0 0 11 11 0 42 42 83 265 38
756 1 1 2 -78449349 -39820215 -3545520 -78754964 47 9 2 18 10 0 0 0 0 0 47 0 0 29 29 0 45 45 220 251 36
758 1 1 2 -82587246 -98720925 20500678 -37440002 45 16 10 23 19 0 0 0 0 0 45 0 0 49 49 0 43 43 325 189 27
760 1 1 2 -83398096 -76547125 -9652833 -27419636 40 16 8 21 16 0 0 0 0 0 40 0 0 45 45 0 38 38 297 110 22
762 1 1 3 -98985744 -50210046 -33982431 -15744758 48 16 5 24 20 6 6 0 0 0 48 0 0 57 45 12 46 46 324 140 30
764 1 1 1 -82462676 -544462 -45570832 -72363727 60 6 1 26 12 1 1 0 0 0 60 0 0 35 33 2 58 58 274 298 52
767 1 1 1 -84638865 42082572 -50479471 -107417053 41 0 0 3 1 2 2 0 0 0 41 0 0 7 3 4 39 39 70 78 39
769 1 1 1 -81422524 -17715730 -32546170 -65453555 40 8 2 27 15 8 8 0 0 0 40 0 401 53 37 16 38 38 290 88 30
771 1 1 1 -66727928 42370542 -75311300 -100942680 40 0 0 8 3 4 4 0 0 0 40 0 341 16 8 8 38 38 88 108 38
773 1 1 1 -117421331 69304020 -40814218 -111991668 43 4 1 7 4 6 5 1 0 0 42 0 300 24 12 12 41 41 92 134 36
775 1 1 1 -104470073 2434993 -11358646 -86881685 38 6 3 13 7 1 1 0 0 0 38 0 12 24 22 2 36 36 162 60 30
777 1 1 1 -97927341 24931351 -28703016 -99678069 44 3 1 18 6 3 3 0 0 0 44 0 94 28 22 6 42 42 190 103 39
779 1 1 2 -115569709 -24744195 -2128545 -55985547 41 10 5 22 11 5 5 0 0 0 40 0 396 47 37 10 38 39 263 64 28
781 1 1 1 -61767985 72074404 -100074218 -110472391 39 1 0 4 1 3 3 0 0 0 39 0 381 11 5 6 37 37 33 128 36
783 1 1 1 -109813402 20641155 6244544 -113500305 42 5 1 9 5 11 6 5 0 0 42 0 0 37 15 22 40 40 162 145 35
785 1 1 1 -89774639 39099224 -39431945 -110241458 38 3 1 5 3 1 1 0 0 0 38 0 348 11 9 2 36 36 81 95 33
787 1 1 1 -116592585 61082177 -33117009 -112673178 39 5 2 6 5 2 2 0 0 0 39 0 298 17 13 4 37 37 91 81 32
789 1 1 1 -59643475 3613602 -33346384 -111167702 39 0 0 2 0 0 0 0 0 0 38 0 0 2 2 0 36 37 45 178 36
791 1 1 1 -85760338 33474949 -32771239 -116082932 38 0 0 4 0 2 2 0 0 0 38 0 504 8 4 4 36 36 63 108 36
793 1 1 1 -88615469 10598240 -24263709 -97792708 37 4 1 15 4 1 1 0 0 0 37 0 100 22 20 2 35 35 172 62 31
795 1 1 1 -83585756 -2132402 -21684854 -93664608 35 3 1 7 4 0 0 0 0 0 35 0 7 11 11 0 33 33 113 59 30
797 1 1 1 -86125151 52812259 -64323693 -102395094 36 3 1 3 3 1 1 0 0 0 36 0 3 9 7 2 34 34 55 62 31
799 1 1 2 -79231990 -36440335 -20162671 -61036928 34 6 3 17 8 4 3 1 0 0 34 2 50 34 26 8 32 32 208 30 26
801 1 1 1 -100894939 22100081 -22909892 -99116085 35 4 2 12 6 2 2 0 0 0 35 2 245 22 18 4 33 33 151 58 29
803 1 1 1 -65856454 18321334 -62888619 -89400083 35 0 0 18 6 0 0 0 0 0 35 0 362 18 18 0 33 33 164 66 33
806 1 1 1 -64173045 43925901 -78550318 -103441883 36 0 0 0 0 0 0 0 0 0 36 0 0 0 0 0 34 34 10 68 34
808 1 1 1 -92424656 -13973239 -17830870 -76279144 33 6 3 8 6 1 1 0 0 0 33 0 0 19 17 2 31 31 132 48 25
810 1 1 1 -48480642 22524660 -74399329 -100672132 35 0 0 0 0 0 0 0 0 0 35 0 0 0 0 0 33 33 30 98 33
812 1 1 1 -56618476 29842609 -83199998 -90815302 37 0 0 0 0 0 0 0 0 0 37 0 0 0 0 0 35 35 25 0 35
814 1 1 1 -83083485 5108123 -48654227 -73300483 43 10 3 12 10 5 5 1 0 0 43 2 78 36 25 11 41 41 180 120 31
816 1 1 1 -68241500 52966291 -91750697 -94259759 39 0 0 0 0 1 1 0 0 0 39 0 66 2 0 2 37 37 21 37 37
818 1 1 1 -58119682 31302070 -84626308 -89800099 38 0 0 1 0 0 0 0 0 0 38 0 618 1 1 0 36 36 36 0 36
820 1 1 1 -81538538 56477552 -84706474 -91889727 40 3 1 3 3 0 0 0 0 0 40 0 747 7 7 0 38 38 54 56 35
822 1 1 1 -31243719 4549434 -85447479 -87557458 39 2 0 3 3 1 1 0 0 0 38 1 17 7 5 2 37 37 51 33 33
824 1 1 1 -71101555 56690666 -92296318 -95049338 44 0 0 0 0 0 0 0 0 0 44 0 8 0 0 0 42 42 7 59 42
826 1 1 1 -65325484 34599029 -77418749 -94384134 36 0 0 0 0 0 0 0 0 0 36 0 0 0 0 0 34 34 16 66 34
828 1 1 1 -58210000 45821282 -90218338 -98440012 40 0 0 0 0 0 0 0 0 0 40 0 0 0 0 0 38 38 20 108 38
830 1 1 1 -84442718 -14537651 -30828739 -71189585 36 7 2 9 9 0 0 0 0 0 36 0 3 18 18 0 34 34 143 68 27
832 1 1 1 -66961061 66557152 -100634959 -99159086 45 1 0 3 1 0 0 0 0 0 45 0 6 4 4 0 43 43 39 123 42
834 1 1 1 -15583354 5377303 -93923479 -94191304 41 4 1 6 5 1 1 0 0 0 40 44 469 13 11 2 39 39 82 134 34
836 1 1 1 -83392720 50718504 -69735239 -97310432 39 3 1 3 3 0 0 0 0 0 39 0 6 7 7 0 37 37 54 68 34
838 1 1 1 -65510147 39281136 -75505174 -100961769 37 0 0 0 0 0 0 0 0 0 37 0 0 0 0 0 35 35 14 70 35
840 1 1 1 -66424370 47196523 -86250717 -96441588 36 0 0 0 0 0 0 0 0 0 36 0 572 0 0 0 34 34 10 0 34
842 1 1 1 -67901660 41417912 -78199922 -97741899 36 0 0 0 0 0 0 0 0 0 36 0 278 0 0 0 34 34 9 0 34
845 1 1 1 -37970481 -1815758 -38040367 -119294940 52 3 0 5 4 12 4 10 3 0 52 102 2867 37 8 29 50 50 112 966 47
847 1 1 0 -5093605 -9046225 -80613546 -106366597 53 2 0 4 2 8 7 2 0 0 53 103 3175 23 6 17 51 51 68 1121 49
849 1 1 1 -11219637 29140770 -105929303 -108607482 51 3 1 5 3 8 4 6 0 0 51 99 2814 27 9 18 49 49 61 921 46
851 1 1 0 6186600 -61172072 -36389966 -107854658 51 1 0 4 2 11 2 9 0 0 51 99 2961 27 5 22 49 49 108 1226 48
853 1 1 2 -34278961 -56863091 -13417950 -96258130 53 6 0 8 7 10 7 8 0 0 53 99 3012 39 14 25 51 51 163 1067 45
855 1 1 2 -40073347 -41975518 -18367322 -98038345 43 9 2 11 10 7 2 7 1 0 43 85 2554 39 22 17 41 41 179 917 32
857 1 1 0 -13925873 -47098275 -38860492 -96160445 46 6 0 8 6 12 3 10 0 0 46 87 2672 39 14 25 44 44 149 882 38
859 1 1 0 -2433827 -52505917 -27227863 -116229364 52 2 0 5 2 16 11 10 0 0 51 95 2877 44 7 37 50 50 113 1145 48
861 1 1 1 -18704149 -5424872 -59657590 -113086399 46 2 0 6 4 7 2 7 3 0 46 89 2696 27 8 19 44 44 106 1029 42
863 1 1 0 414193 -23734085 -60561927 -114097786 48 1 0 6 1 9 1 9 2 0 48 91 2871 28 7 21 46 46 92 1186 45
865 1 1 1 -23115049 -7806929 -75302777 -93441660 46 3 0 3 3 1 0 1 0 0 46 91 2465 8 6 2 44 44 60 287 41
867 1 1 1 -25069901 30282409 -96513873 -96411638 46 5 0 5 5 27 3 25 0 0 46 79 1392 65 10 55 44 44 75 498 39
869 1 1 1 -25163653 26526501 -107541447 -92025925 47 2 0 2 2 2 0 2 0 0 47 87 1512 8 4 4 45 45 35 171 43
871 1 1 1 -35974794 42669973 -105101906 -98862232 49 3 0 3 3 4 3 3 0 0 49 97 2761 16 6 10 47 47 49 264 44
873 1 1 1 -53953099 -6039680 -46083501 -93052338 46 6 1 6 6 1 0 1 0 0 46 63 1448 15 13 2 44 44 105 161 38
875 1 1 1 -27845246 19215578 -96693066 -89993543 51 2 0 2 2 10 0 10 0 0 51 97 2333 24 4 20 49 49 54 288 47
877 1 1 1 -37273972 17158267 -92047091 -86820966 50 2 0 2 2 2 0 2 0 0 50 99 2679 8 4 4 48 48 46 229 46
879 1 1 1 -36093503 1223462 -78570801 -82707543 50 5 0 5 5 6 0 6 0 0 50 98 2067 22 10 12 48 48 93 336 43
881 1 1 1 -64874677 53411723 -98511282 -90179223 49 2 0 5 3 0 0 0 0 0 48 30 1040 7 7 0 46 47 68 132 44
884 1 1 1 -50893697 44153842 -89476857 -105314595 64 0 0 0 0 0 0 0 0 0 64 0 76 0 0 0 62 62 10 545 62
886 1 1 1 -40361514 -11126559 -59966357 -90445097 60 0 0 0 0 0 0 0 0 0 60 0 0 0 0 0 58 58 71 406 58
888 1 1 0 26026240 -69213758 -68425272 -89471508 62 0 0 2 0 1 1 1 0 0 62 6 67 5 2 3 60 60 77 511 60
890 1 1 2 -54933740 -83672327 14225606 -72022776 48 16 11 17 17 1 0 1 0 0 47 8 119 46 44 2 46 46 271 369 29
892 1 1 1 -92737953 62647005 -96265019 -69919784 56 11 3 13 11 9 3 6 1 0 56 14 432 46 27 19 54 54 186 157 43
894 1 1 1 -81975845 86881611 -119642460 -86780166 60 0 0 0 0 0 0 0 0 0 60 0 570 0 0 0 58 58 4 107 58
896 1 1 1 -25976470 44732365 -146947472 -69469861 63 0 0 4 1 2 2 0 0 0 62 74 1290 8 4 4 61 61 46 120 61
898 1 1 1 -85847606 79981861 -111110873 -85237951 62 0 0 0 0 1 1 0 0 0 62 0 73 2 0 2 60 60 12 58 60
900 1 1 1 -92468309 84077272 -115868391 -75971824 61 2 0 3 2 0 0 0 0 0 61 0 0 5 5 0 59 59 48 17 57
902 1 1 2 -94714075 -50411989 -19534505 -31734457 39 18 14 18 18 1 1 0 0 0 39 0 0 52 50 2 37 37 279 18 19
904 1 1 1 -83362085 88335848 -121715522 -84142650 62 0 0 0 0 0 0 0 0 0 62 0 0 0 0 0 60 60 5 53 60
906 1 1 1 -78081317 67766290 -113492626 -76769689 61 0 0 3 0 0 0 0 0 0 61 0 0 3 3 0 59 59 37 58 59
908 1 1 1 -46472474 50997684 -128431708 -74910468 63 0 0 2 0 0 0 0 0 0 63 6 199 2 2 0 61 61 25 120 61
910 1 1 1 -99989351 62802031 -94946035 -71043273 61 3 0 3 3 0 0 0 0 0 61 0 0 6 6 0 59 59 64 33 56
912 1 1 1 -98705122 37890696 -89672660 -50933736 57 10 0 11 10 0 0 0 0 0 57 0 26 21 21 0 55 55 163 42 45
914 1 1 1 -85077039 96751316 -128819840 -83497565 65 0 0 0 0 0 0 0 0 0 65 0 146 0 0 0 63 63 3 63 63
916 1 1 1 -77846661 112988341 -131354563 -103443373 65 0 0 0 0 1 0 1 0 0 64 0 38 2 0 2 62 63 0 238 62
918 1 1 1 -83163243 90217518 -123032585 -84852381 62 0 0 0 0 0 0 0 0 0 62 0 91 0 0 0 60 60 4 60 60
920 1 1 1 -80111861 96913348 -126191602 -91339249 62 0 0 0 0 0 0 0 0 0 62 0 244 0 0 0 60 60 3 120 60
923 1 1 1 -62465101 41757805 -48573430 -128314206 53 1 0 2 1 14 12 10 23 0 53 100 6164 62 3 59 51 51 58 1392 50
925 1 1 1 -96822761 64597511 -51673915 -111836527 50 7 1 12 7 16 14 6 39 0 50 122 7404 95 20 75 48 48 140 724 41
927 1 1 1 -78303968 84328756 -81302619 -122293942 55 1 0 1 1 16 11 11 41 0 55 104 7235 81 2 79 53 53 32 1470 52
929 1 1 1 -82162314 117181850 -102027564 -126316807 59 1 0 5 1 21 13 18 35 0 59 112 6510 93 6 87 57 57 39 1351 56
931 1 1 1 -89213327 101480937 -88910957 -118130923 54 1 0 1 1 18 4 18 49 0 54 100 7285 91 2 89 52 52 28 1107 51
933 1 1 1 -92169234 104338403 -93507964 -113401915 61 2 0 6 2 20 13 17 40 0 61 142 7656 98 8 90 59 59 60 1302 57
935 1 1 1 -87106410 87533082 -72046587 -124893414 52 3 0 3 3 13 11 6 48 0 51 99 7403 84 6 78 49 50 60 1048 46
937 1 1 1 -112051411 5144870 -37463776 -52617648 53 19 2 19 19 31 20 17 43 0 53 168 8583 151 40 111 51 51 292 637 32
939 1 1 1 -88109833 66290672 -71945640 -103955714 56 1 0 2 1 19 16 14 40 0 56 104 7044 92 3 89 54 54 45 1049 53
941 1 1 1 -95427646 81888710 -81394795 -98957870 53 5 0 5 5 22 13 13 39 0 53 116 7250 97 10 87 51 51 82 1259 46
943 1 1 1 -67472957 27311356 -34075441 -124265997 48 1 0 3 1 14 8 14 7 0 48 90 5309 47 4 43 46 46 75 1333 45
945 1 1 1 -101062857 58399137 -31184819 -122144969 53 5 2 8 5 16 12 15 12 0 52 99 5949 70 15 55 50 51 124 1238 45
947 1 1 1 -95046996 66203317 -49187309 -117290959 51 4 0 5 4 12 9 12 30 0 51 96 6062 72 9 63 49 49 85 1338 45
949 1 1 1 -75370912 84430016 -88927408 -112847082 55 3 0 3 3 23 10 17 30 0 55 107 6838 86 6 80 53 53 74 1475 50
951 1 1 1 -72464244 72330608 -71883840 -125565528 51 1 0 2 1 20 17 16 34 0 51 96 6971 90 3 87 49 49 41 1531 48
953 1 1 1 -81824580 58711524 -59423140 -113391542 46 2 1 6 6 16 2 16 6 0 46 86 6391 49 9 40 44 44 104 720 42
955 1 1 1 -60885956 52619762 -63678902 -119959605 44 1 0 2 1 21 7 21 21 0 44 82 5576 73 3 70 42 42 54 1244 41
957 1 1 1 -68725866 40533445 -36547697 -128834844 43 1 0 3 2 15 9 14 18 0 43 79 4858 60 4 56 41 41 77 1191 40
959 1 1 2 -58695418 -11163448 -8522835 -117370752 39 2 0 6 4 20 3 18 0 0 39 71 3821 49 8 41 37 37 110 1089 35
962 1 1 1 -56913313 21593609 -77703085 -88729947 48 0 0 0 0 0 0 0 0 0 48 0 0 0 0 0 46 46 60 137 46
964 1 1 1 -62454217 70482386 -105815348 -102100777 50 0 0 1 0 3 3 0 0 0 49 0 0 7 1 6 48 48 26 188 47
966 1 1 1 -64574563 68104363 -103282238 -100805826 48 0 0 0 0 0 0 0 0 0 48 0 0 0 0 0 46 46 13 137 46
968 1 1 1 -70045833 2882157 -50818244 -83978610 49 2 0 2 2 0 0 0 0 0 49 0 0 4 4 0 47 47 96 134 45
970 1 1 1 -45666316 15501431 -75668290 -94928963 48 0 0 0 0 0 0 0 0 0 48 0 67 0 0 0 46 46 35 223 46
972 1 1 1 -55496059 45915831 -84827017 -106512037 48 0 0 0 0 0 0 0 0 0 48 0 232 0 0 0 46 46 7 225 46
974 1 1 1 -73175326 57604158 -85688653 -101662483 48 0 0 0 0 1 1 0 0 0 48 0 151 2 0 2 46 46 17 169 46
976 1 1 1 -53054826 46437315 -89302623 -104590239 48 0 0 0 0 0 0 0 0 0 48 0 137 0 0 0 46 46 11 257 46
978 1 1 1 -69557500 79071553 -104466466 -103230663 52 3 0 5 4 2 2 1 0 0 52 2 137 13 8 5 50 50 72 188 47
980 1 1 1 -54981684 49800919 -92446515 -102787111 50 0 0 0 0 0 0 0 0 0 50 0 161 0 0 0 48 48 11 235 48
982 1 1 1 -51790238 52294285 -93018211 -107590045 47 0 0 0 0 0 0 0 0 0 47 0 401 0 0 0 45 45 8 253 45
984 1 1 1 -81509516 52342869 -52916484 -116724936 49 4 1 5 4 2 1 1 0 0 49 0 232 14 10 4 47 47 71 337 43
986 1 1 1 -89927520 39371604 -39854788 -109752842 51 4 1 5 4 3 3 0 1 0 51 0 139 17 10 7 49 49 109 266 45
988 1 1 1 -44236855 12204718 -72664950 -95772114 48 0 0 0 0 0 0 0 0 0 47 0 82 0 0 0 46 46 48 208 45
990 1 1 1 -43033087 27548361 -104558385 -80810409 49 0 0 0 0 0 0 0 0 0 48 42 1017 0 0 0 47 47 9 47 47
992 1 1 1 -72527461 68263813 -102132882 -94810652 48 0 0 0 0 0 0 0 0 0 48 0 0 0 0 0 46 46 4 85 46
994 1 1 1 -57752285 22505959 -78647215 -88532580 47 0 0 0 0 0 0 0 0 0 47 0 24 0 0 0 45 45 40 177 45
996 1 1 1 -65910381 58101559 -95708490 -98004244 47 0 0 0 0 0 0 0 0 0 47 0 0 0 0 0 45 45 14 135 45
998 1 1 1 -72437407 60197964 -95490191 -93836244 46 0 0 0 0 0 0 0 0 0 46 0 63 0 0 0 44 44 9 44 44
1001 1 1 1 -91017271 46750073 -25946397 -128548495 38 0 0 7 0 7 7 0 4 0 38 6 1069 25 7 18 36 36 75 184 36
1003 1 1 1 -64403360 37425359 -73873161 -100950873 41 0 0 5 1 6 6 0 0 0 41 0 940 17 5 12 39 39 77 152 39
1005 1 1 1 -98529257 32081401 -8816061 -117897553 42 6 2 15 9 13 11 4 5 0 42 8 736 56 23 33 40 40 184 297 34
1007 1 1 1 -120779828 39661592 4435237 -120120420 48 4 2 18 7 9 9 2 7 0 48 4 804 51 24 27 46 46 214 270 42
1009 1 1 1 -103598910 52358450 -27214150 -117328653 43 0 0 10 1 5 4 1 8 0 43 0 227 28 10 18 41 41 109 326 41
1011 1 1 1 -59509311 38500806 -56159603 -117348921 43 1 0 7 2 14 10 8 4 0 43 69 1889 44 8 36 41 41 90 239 40
1013 1 1 1 -77852076 29121888 -35936776 -112053266 39 0 0 0 0 0 0 0 16 0 38 45 1900 16 0 16 37 37 23 469 36
1015 1 1 1 -110278690 44313720 -17915687 -111929874 43 1 0 22 2 5 4 1 15 0 43 0 925 48 23 25 41 41 185 360 40
1017 1 1 1 -53280659 13579117 -37308385 -122154430 36 0 0 3 0 0 0 0 1 0 36 71 2496 4 3 1 34 34 26 510 34
1019 1 1 1 -92658728 16980496 -6901514 -118363672 40 0 0 6 0 5 5 0 1 0 39 0 929 17 6 11 37 38 78 259 37
1021 1 1 1 -123294634 49366344 3028300 -122220406 41 6 1 8 6 14 7 9 9 0 41 12 1272 54 15 39 39 39 121 426 33
1023 1 1 1 -108963819 37547946 -14788498 -111833548 42 1 0 17 1 5 5 0 4 0 41 0 138 32 18 14 40 40 162 190 38
1025 1 1 1 -60364343 17216196 -32645314 -124890791 41 1 0 2 1 6 6 1 0 0 41 82 2892 16 3 13 39 39 29 553 38
1027 1 1 1 -117782206 82815503 -51187926 -110302520 43 0 0 6 0 6 6 0 14 0 43 0 483 32 6 26 41 41 74 182 41
1029 1 1 1 -44826244 7832408 -38901837 -121957942 36 0 0 1 0 5 5 0 4 0 35 71 2251 15 1 14 33 34 30 462 33
1031 1 1 1 -87393244 48228503 -18164650 -135212555 38 3 0 5 3 10 9 2 22 0 38 65 2544 51 8 43 36 36 68 495 33
1033 1 1 2 -86948834 -39968103 34641241 -94388469 33 8 4 14 8 16 11 7 18 0 32 74 3014 78 26 52 31 31 170 309 22
1035 1 1 1 -50473757 12251487 -63250288 -98782682 32 0 0 0 0 0 0 0 1 0 32 63 2040 1 0 1 30 30 35 60 30
1037 1 1 1 -57433360 -6444772 -6997733 -127037122 32 0 0 9 1 0 0 0 4 0 32 12 1197 13 9 4 30 30 86 249 30
1040 1 1 1 -21505195 55630998 -106686735 -125820230 50 1 0 1 1 5 0 5 1 0 50 98 3485 13 2 11 48 48 19 1361 47
1042 1 1 1 -39533014 -7624766 -32175043 -121227053 52 3 1 5 3 4 3 1 1 0 52 102 3158 18 9 9 50 50 100 763 47
1044 1 1 1 -60471905 -13820296 -20654668 -103713878 53 7 2 11 8 11 7 6 0 0 53 103 3095 44 20 24 51 51 155 758 44
1046 1 1 1 -2395038 1950753 -78466907 -122671919 48 0 0 0 0 1 1 0 0 0 47 94 3343 2 0 2 45 46 6 1031 45
1048 1 1 1 -26208172 -23586636 -44718827 -104934329 48 0 0 0 0 0 0 0 0 0 47 95 1834 0 0 0 46 46 8 524 45
1050 1 1 1 -42450734 -952978 -41850479 -110747643 47 3 1 3 3 5 0 5 0 0 47 91 1873 17 7 10 45 45 69 700 42
1052 1 1 1 -57635129 46049104 -71108787 -116858431 58 4 1 6 5 6 5 1 2 0 58 113 3527 25 11 14 56 56 91 1017 52
1054 1 1 1 -4949864 -831638 -73269305 -120789621 52 0 0 0 0 1 1 0 0 0 52 103 2832 2 0 2 50 50 5 923 50
1056 1 1 2 -70620247 -30926112 18473366 -113053719 41 12 7 13 12 10 6 5 1 0 41 93 3469 54 32 22 39 39 194 751 27
1058 1 1 1 -37669271 46337106 -76745846 -132095994 48 0 0 0 0 3 2 1 1 0 47 95 3242 7 0 7 46 46 7 1049 45
1060 1 1 1 -14216159 19544594 -78355968 -127972958 48 0 0 0 0 2 1 1 0 0 48 95 3349 4 0 4 46 46 8 1111 46
1062 1 1 1 -46503079 38035803 -74292162 -116137420 57 3 0 4 3 7 6 1 1 0 56 108 3052 22 7 15 55 55 58 809 51
1064 1 1 1 595371 1100633 -78175117 -125776802 48 0 0 0 0 1 1 0 0 0 48 95 3487 2 0 2 46 46 5 1217 46
1066 1 1 1 -5683654 46633260 -117070291 -122400003 54 0 0 1 0 9 4 7 0 0 54 107 3935 21 1 20 52 52 9 1366 52
1068 1 1 1 -35374917 49536620 -76273686 -138874978 53 0 0 0 0 6 3 3 2 0 53 105 3828 14 0 14 51 51 11 1416 51
1070 1 1 1 -35369875 16923425 -63657357 -116334361 49 5 1 9 6 9 5 4 0 0 49 105 3995 33 15 18 47 47 109 1192 42
1072 1 1 1 -56612738 34721460 -61062567 -116789866 59 2 0 6 4 6 4 3 2 0 59 121 3880 23 8 15 57 57 82 1114 55
1074 1 1 1 -24047995 14452714 -56278649 -136057025 53 0 0 2 0 5 3 3 1 0 52 105 3982 14 2 12 51 51 42 1457 50
1076 1 1 1 -29974939 22067024 -69839683 -124055502 52 3 0 5 3 4 2 2 0 0 51 104 4135 16 8 8 49 50 75 1279 46
1078 2 1 0 33609241 -100885274 -35097122 -95251833 37 4 3 7 6 0 0 0 0 0 37 73 802 14 14 0 35 35 132 290 31
1080 2 1 0 28847985 -120017920 -17696978 -89908727 37 5 3 7 6 0 0 0 0 0 37 73 902 15 15 0 35 35 140 318 30
1082 2 1 0 18430128 -100763976 -24844652 -92129207 37 2 0 9 4 0 0 0 0 0 37 73 916 11 11 0 35 35 121 356 33
1084 2 1 0 12200638 -107624590 -15383976 -88296836 37 4 0 8 5 0 0 0 0 0 37 73 982 12 12 0 35 35 128 366 31
1086 2 1 2 -33006072 -99899025 5552218 -70597501 38 9 4 11 9 1 1 0 0 0 38 73 991 26 24 2 36 36 179 303 27
1087 2 1 1 -29637548 -18903119 -39320815 -112996420 37 0 0 1 0 2 2 0 0 0 37 0 163 5 1 4 35 35 56 301 35
1089 2 1 2 -49247583 -27448867 -6827508 -118024321 37 0 0 1 0 1 1 0 0 0 36 0 254 3 1 2 34 35 60 272 34
1091 2 1 1 -36729523 -17740663 -30661342 -115823104 36 0 0 3 0 0 0 0 0 0 36 0 244 3 3 0 34 34 54 264 34
1093 2 1 2 -56690686 -9120850 5522966 -139098921 37 0 0 2 0 13 13 0 0 0 36 0 269 28 2 26 34 35 56 272 34
1095 2 1 2 -55757260 -32837025 4378629 -117198212 36 0 0 0 0 0 0 0 0 0 36 0 249 0 0 0 34 34 64 266 34
1097 2 1 2 -69632774 -697679 7903227 -136816936 37 0 0 1 0 8 8 0 0 0 36 0 267 17 1 16 35 35 53 279 35
1100 2 1 2 -55042063 -52633294 11298175 -98584134 39 7 0 9 7 18 18 0 8 0 39 25 457 60 16 44 37 37 148 327 30
1102 2 1 2 -60101017 -33922051 13437876 -119676418 41 3 0 7 3 8 8 0 0 0 41 11 329 26 10 16 39 39 122 278 36
1104 2 1 2 -12993904 -96022382 12426484 -104498716 37 0 0 8 1 0 0 0 0 0 37 22 430 8 8 0 35 35 91 465 35
1106 2 1 2 -19261138 -81414647 13574470 -112704617 37 0 0 4 0 1 0 1 0 0 37 22 418 6 4 2 35 35 73 363 35
1108 2 1 2 -46955966 -33548354 7911757 -126046565 37 0 0 5 2 6 6 0 0 0 37 16 399 17 5 12 35 35 88 398 35
1110 2 1 2 -43183609 -53816199 15746224 -118067097 37 0 0 4 0 3 3 0 0 0 37 14 346 10 4 6 35 35 87 371 35
1113 2 1 2 -41659821 -36554221 -9028974 -111593642 42 6 3 7 6 4 3 1 0 0 42 13 818 24 16 8 40 40 138 374 34
1115 2 1 2 -67419372 -83563735 37230387 -86683452 42 11 5 12 11 3 1 2 0 0 42 23 948 34 28 6 40 40 216 319 29
1117 2 1 2 -33053478 -45283614 1225928 -120905241 42 6 3 6 6 12 12 0 0 0 41 24 911 39 15 24 40 40 130 363 33
1119 2 1 0 -26716985 -44638809 -29433913 -92832422 48 7 0 11 7 20 13 15 1 0 48 45 1294 67 18 49 46 46 191 845 40
1121 2 1 2 -41526955 -76514676 10262896 -92314692 46 7 4 8 7 2 2 0 0 0 46 39 996 23 19 4 44 44 154 406 37
1123 2 1 2 -37632067 -128553790 30270515 -60381022 37 27 16 32 27 1 1 0 0 0 36 37 1000 77 75 2 35 35 439 79 8
1125 2 1 2 -62015330 -111104313 26938941 -49945030 44 40 36 42 40 2 2 0 0 0 44 35 698 122 118 4 42 42 614 11 2
1127 2 1 2 -84285150 -107628028 16931340 -19016821 38 23 4 29 24 5 4 2 0 0 38 40 827 67 56 11 36 36 407 182 13
1129 2 1 2 -86338407 -102298200 37502124 -45383642 34 31 27 32 32 0 0 0 0 0 33 65 1445 90 90 0 31 32 480 0 0
1131 2 1 2 -53281944 -99598620 -7935574 -30886541 41 23 4 31 24 9 8 1 1 0 41 57 1181 77 58 19 39 39 423 287 16
1133 2 1 2 -37763150 -96758199 1330906 -60671718 36 10 3 23 12 11 10 2 0 0 36 49 736 59 36 23 34 34 264 242 24
1136 2 1 2 -78180489 -83983 17350565 -132445662 38 3 0 5 3 10 8 2 29 0 38 72 2881 57 8 49 36 36 99 536 33
1138 2 1 1 -70194443 -2072970 -2616424 -122805296 36 2 0 2 2 1 1 0 10 0 36 70 3337 16 4 12 34 34 81 535 32
1140 2 1 2 -75951909 -6812947 17025074 -126056610 38 6 0 7 6 12 8 6 29 0 38 70 2795 68 13 55 36 36 139 558 30
1142 2 1 2 -72640518 -3627847 14126031 -132554427 37 5 1 9 5 10 10 0 31 0 37 65 2759 66 15 51 35 35 139 772 30
1144 2 1 1 -83274869 15530660 -2340965 -122335371 37 4 0 6 5 12 10 3 22 0 37 71 3062 57 10 47 35 35 112 475 31
1146 2 1 2 -78960144 -2402121 19567378 -132405841 38 3 0 4 3 10 10 2 25 0 38 70 2829 54 7 47 36 36 90 577 33
1149 2 1 3 -60888516 -95081191 -36530736 -4250681 37 27 9 30 29 17 17 0 0 0 37 1 15 100 66 34 35 35 439 12 8
1151 2 1 2 -64447171 -75276419 -25263994 -28696812 29 15 8 22 17 24 24 1 0 0 29 2 460 94 45 49 27 27 280 62 13
1153 2 1 2 -67281667 -64897882 -24430006 -37168797 31 12 6 25 16 5 5 0 0 0 31 0 274 53 43 10 29 29 299 78 16
1154 2 1 2 -59330028 -61189894 19661942 -99815980 43 3 1 18 4 3 3 0 0 0 43 81 1959 28 22 6 41 41 188 484 38
1156 2 1 2 -113873848 -33527563 35635866 -89490428 51 8 2 17 11 6 6 0 0 0 51 20 858 39 27 12 49 49 244 370 41
1158 2 1 2 -49242781 -77574036 27720617 -102328570 40 2 0 2 2 0 0 0 0 0 40 75 1842 4 4 0 38 38 89 432 36
1160 2 1 2 -88948072 -101924126 62173810 -64022372 35 12 7 17 14 6 6 0 0 0 35 81 2061 48 36 12 33 33 246 265 21
1162 2 1 2 -53959135 -44715899 1375140 -103324543 42 0 0 9 2 4 4 0 0 0 42 83 2104 17 9 8 40 40 127 497 40
1164 2 1 2 -82089445 -89968331 83458452 -103942192 25 8 3 9 8 5 5 0 0 0 25 73 1844 30 20 10 23 23 147 192 15
1167 2 1 2 -61950827 -25992622 7765826 -120447920 34 0 0 5 0 0 0 0 0 0 34 0 2 5 5 0 32 32 75 215 32
1169 2 1 2 -58236576 -16587103 -4584831 -120960683 35 0 0 7 1 1 1 0 0 0 35 0 26 9 7 2 33 33 99 225 33
1171 2 1 2 -71347742 -13654634 6989868 -122389666 36 0 0 7 0 2 2 0 0 0 36 0 9 11 7 4 34 34 87 238 34
1173 2 1 2 -53028359 -14875669 -9859449 -122391208 36 0 0 6 0 3 3 0 0 0 36 0 45 12 6 6 34 34 78 262 34
1175 2 1 2 -80777335 -28101769 32678695 -123277731 33 3 0 12 4 1 0 1 0 0 33 0 173 17 15 2 31 31 126 211 28
1177 2 1 2 -88201531 -10434750 20328212 -123035969 36 2 0 8 2 5 5 0 0 0 36 0 35 20 10 10 34 34 116 288 32
1180 2 1 2 -62627632 -134241673 7420755 -11667401 50 45 21 47 45 6 6 0 0 0 50 59 1126 125 113 12 48 48 689 38 3
1181 2 1 3 -81183841 -76936758 -20187858 -17489409 28 14 7 17 14 0 0 0 0 0 28 0 91 38 38 0 26 26 250 10 12
1183 2 1 2 -77478446 2683644 8598248 -130094481 29 3 2 9 3 1 0 1 1 0 29 1 86 17 14 3 27 27 122 140 24
1185 2 1 2 -110956265 -42501391 9798966 -54798189 28 9 3 16 9 2 2 0 0 0 28 0 48 32 28 4 26 26 199 32 17
1187 2 1 2 -103052582 -42059931 4253303 -54906489 29 10 5 16 11 1 1 0 0 0 28 0 60 33 31 2 27 27 202 53 17
1189 2 1 2 -113250013 -32863593 14566602 -64582086 27 8 4 15 9 1 1 0 0 0 27 0 60 29 27 2 25 25 187 40 17
1191 2 1 2 -95627438 -44575403 31923807 -87278487 31 9 3 16 9 3 3 0 2 0 31 0 218 36 28 8 29 29 204 135 20
1194 2 1 2 -23685670 -51017477 -16637567 -109346719 41 5 0 8 5 3 3 3 1 0 41 79 2159 23 13 10 39 39 131 881 34
1196 2 1 2 -41996544 -48010040 -5196572 -102020931 41 9 6 10 10 4 1 4 1 0 41 81 2315 35 25 10 39 39 168 766 30
1198 2 1 2 -47304256 -104416627 7857132 -45582248 39 16 9 16 16 8 2 8 0 0 39 77 2109 59 41 18 37 37 268 522 21
1200 2 1 2 -49593487 -74331967 27460626 -100371627 39 12 5 12 12 3 2 3 2 0 39 75 2092 39 29 10 37 37 201 650 25
1202 2 1 2 -27735870 -72034077 13762301 -113901878 40 6 3 6 6 2 1 2 1 0 40 79 2031 21 15 6 38 38 126 749 32
1204 2 1 2 -52491790 -72908447 35156825 -109441004 40 9 5 9 9 3 1 3 1 0 40 79 2024 31 23 8 38 38 169 661 29
1207 2 1 0 -2008155 -24184397 -66734694 -105961717 36 0 0 0 0 2 2 0 0 0 36 71 1524 4 0 4 34 34 24 349 34
1209 2 1 2 -62845744 -80400080 25982382 -78971579 38 12 8 14 14 6 6 0 1 0 37 72 1506 47 34 13 35 36 253 236 23
1211 2 1 2 -24940866 -48594490 -12595318 -111235428 40 4 2 6 5 6 6 2 0 0 40 78 1728 26 12 14 38 38 111 374 34
1213 2 1 2 -38756559 -47376834 -6607707 -105378830 37 3 1 5 4 1 1 0 1 0 36 73 1634 12 9 3 35 35 104 320 32
1215 2 1 2 -47530998 -45218273 -11752498 -95381874 39 5 0 7 5 5 5 0 1 0 39 71 1673 23 12 11 37 37 126 335 32
1217 2 1 0 19246231 -55827747 -64292360 -99101763 35 0 0 0 0 1 1 0 0 0 35 65 1284 2 0 2 33 33 29 307 33
1220 2 1 2 -54794052 -91325400 40933419 -83052817 33 13 9 17 13 5 0 5 2 0 33 65 1467 51 39 12 31 31 244 288 18
1222 2 1 2 -64490209 -92113959 10190441 -39969841 35 17 8 20 18 7 1 7 2 0 35 67 1594 62 45 17 33 33 304 256 16
1224 2 1 2 -71814843 -64022761 6922262 -56620193 33 19 12 20 19 7 0 7 5 0 33 65 1544 70 51 19 31 31 303 192 12
1226 2 1 2 -61577505 -72365848 24634802 -78133031 33 18 12 22 19 8 5 6 3 0 33 65 1531 74 52 22 31 31 317 220 13
1228 2 1 2 -77183824 -67338950 -4983622 -40016682 37 27 11 28 27 10 2 10 3 0 37 71 1701 91 66 25 35 35 418 126 8
1230 2 1 2 -62363976 -67301520 39067493 -95074151 34 25 19 26 25 13 2 13 4 0 34 65 1591 102 70 32 32 32 389 105 7
1233 2 1 2 -61305475 -50270029 20144474 -107514382 29 5 3 7 5 0 0 0 0 0 29 0 15 15 15 0 27 27 112 154 22
1234 2 1 2 -19436741 -73988082 13174449 -118874869 25 0 0 7 1 0 0 0 0 0 25 49 1312 7 7 0 23 23 76 367 23
1236 2 1 2 -18632561 -70147323 12638430 -123110762 28 0 0 2 0 1 1 0 0 0 28 55 1491 4 2 2 26 26 57 468 26
1238 2 1 2 -71499311 -74679716 67236631 -115674022 27 6 3 10 6 4 3 1 0 0 27 47 1283 27 19 8 25 25 134 319 19
1240 2 1 2 -29525602 -50414208 6576559 -125205486 27 0 0 6 0 0 0 0 2 0 26 53 1504 8 6 2 25 25 80 432 24
1242 2 1 2 -28213723 -42440739 6403 -127355428 26 0 0 6 0 0 0 0 1 0 26 51 1470 7 6 1 24 24 66 430 24
1244 2 1 2 -17612875 -61043814 5163465 -125419128 28 0 0 1 0 1 1 0 0 0 28 55 1594 3 1 2 26 26 41 438 26
1247 2 1 2 -102003843 -81207344 47237400 -57586895 44 27 25 32 29 3 3 0 5 0 43 27 890 95 84 11 42 42 472 140 15
1249 2 1 2 -107110604 -70403254 -2612818 -17971313 65 22 7 42 28 31 31 1 11 0 65 32 942 145 71 74 63 63 514 371 41
1251 2 1 2 -108268467 -49712133 -10727431 -23491634 47 25 3 34 26 15 12 5 12 0 47 40 977 106 62 44 45 45 441 216 20
1253 2 1 2 -104468960 -51331227 6196562 -50910528 49 13 0 29 19 4 3 1 0 0 49 6 735 50 42 8 47 47 347 269 34
1255 2 1 2 -128961507 -75281107 78713597 -71241503 43 38 25 38 38 1 1 0 7 0 43 8 913 110 101 9 41 41 576 18 3
1257 2 1 2 -159799996 -35474628 23600602 -30058006 44 42 13 42 42 3 2 1 7 0 44 8 845 110 97 13 42 42 630 0 0
1260 2 1 2 -14775805 -94457530 -13720077 -72046054 28 7 3 13 7 3 3 0 0 0 28 48 546 29 23 6 26 26 158 207 19
1262 2 1 2 -22951668 -95324894 7054753 -86795014 33 6 3 10 6 1 1 0 0 0 33 46 583 21 19 2 31 31 147 271 25
1264 2 1 3 -38025949 -102898654 -26586350 -24417103 32 16 7 20 17 4 2 2 0 0 32 37 581 51 43 8 30 30 279 145 14
1266 2 1 2 -30506828 -134347518 7240525 -36716053 29 11 6 14 11 0 0 0 0 0 29 51 638 31 31 0 27 27 211 176 16
1268 2 1 2 -35715588 -133463055 -351599 -22500324 47 18 13 35 23 1 1 0 0 0 46 89 1726 68 66 2 44 45 428 358 26
1270 2 1 0 -2920354 -64695214 -52968351 -77844421 52 5 2 5 5 5 0 5 0 0 52 76 904 22 12 10 50 50 125 421 45
1272 2 1 0 24002712 -74282611 -59277865 -89118652 46 6 3 6 6 0 0 0 0 0 46 87 943 15 15 0 44 44 109 370 38
1274 2 1 0 2744775 -89225124 -27693310 -86465033 46 6 2 6 6 1 1 1 0 0 46 77 935 17 14 3 44 44 136 377 38
1276 2 1 0 29582882 -73938776 -68097729 -87066765 44 2 0 2 2 0 0 0 0 0 44 75 706 4 4 0 42 42 74 374 40
1278 2 1 0 16745585 -80740960 -43679522 -91389698 42 6 3 6 6 1 1 0 0 0 41 79 874 17 15 2 40 40 119 306 34
1280 2 1 2 -49149533 -59797756 -22514511 -65323631 47 9 5 12 11 8 4 6 0 0 47 49 853 44 26 18 45 45 209 324 36
1283 2 1 3 -88448702 -80169449 -15418703 -14562330 35 23 4 27 25 3 2 1 0 0 35 0 219 60 54 6 33 33 392 90 10
1285 2 1 2 -117970471 -20976359 16935684 -75526229 35 10 4 13 11 17 17 0 2 0 35 0 52 63 27 36 33 33 203 88 23
1287 2 1 1 -85193237 7157419 -23987744 -99906826 36 0 0 3 0 0 0 0 0 0 36 0 243 3 3 0 34 34 60 33 34
1289 2 1 1 -56688579 14281666 -57124475 -100553108 32 0 0 2 0 4 4 0 0 0 32 0 61 10 2 8 30 30 65 54 30
1291 2 1 1 -54577529 3300766 -55848040 -94126083 31 0 0 6 0 0 0 0 0 0 31 0 151 6 6 0 29 29 67 28 29
1293 2 1 1 -55969052 -5590078 -46034315 -93945529 30 0 0 3 0 0 0 0 0 0 30 0 71 3 3 0 28 28 67 26 28
1296 2 1 2 -89050194 -68612463 -12975738 -16845178 45 21 5 28 23 11 2 10 1 0 45 57 1286 78 54 24 43 43 398 253 21
1298 2 1 2 -53102667 -54798117 -15404765 -74469684 55 11 3 18 11 9 4 7 2 0 55 84 1479 54 32 22 53 53 257 636 42
1300 2 1 3 -89291123 -72314913 -15444344 -13847936 50 24 6 41 30 11 7 6 1 0 50 66 1523 96 71 25 48 48 515 366 24
1302 2 1 2 -66731712 -65428918 -23332006 -35102087 51 15 2 32 22 17 6 13 0 0 51 60 1384 85 49 36 49 49 392 541 34
1304 2 1 2 -20891243 -87145702 999219 -93672211 59 7 2 10 7 11 10 2 0 0 59 106 1691 42 19 23 57 57 187 732 50
1306 2 1 0 5344612 -58540570 -39528778 -102166542 50 1 0 18 1 19 9 13 0 0 50 72 1431 60 19 41 48 48 180 794 47
1309 2 1 2 -58914255 -74409122 6785302 -73119335 52 9 2 14 10 2 2 0 2 0 52 99 1419 31 25 6 50 50 214 448 41
1311 2 1 2 -23440240 -96575636 -22365425 -56857801 48 7 1 14 8 0 0 0 0 0 48 95 1315 22 22 0 46 46 201 365 39
1313 2 1 0 -193759 -89288556 -30547888 -79277084 50 5 0 11 7 2 2 0 0 0 50 95 1291 20 16 4 48 48 176 430 43
1315 2 1 0 9568738 -93086208 -29940146 -85866874 47 3 1 7 5 0 0 0 0 0 47 93 1307 11 11 0 45 45 126 426 42
1317 2 1 0 990465 -83241798 -38014162 -79408936 48 5 0 17 6 3 3 0 0 0 48 93 1267 28 22 6 46 46 183 405 41
1319 2 1 0 -8386172 -96835396 -19687729 -74688859 50 7 1 15 9 1 1 0 0 0 50 95 1394 25 23 2 48 48 221 451 41
1322 2 1 2 -62428591 -89402696 28989132 -73246241 33 24 12 28 24 3 3 0 0 0 33 0 105 70 64 6 31 31 386 54 7
1323 2 1 0 17816185 -92570257 -41598424 -84182933 47 1 0 6 1 7 7 0 0 0 47 91 1337 21 7 14 45 45 96 482 44
1325 2 1 2 -21445668 -40018288 -19364392 -116264175 51 3 2 7 4 13 11 2 2 0 51 93 1344 40 12 28 49 49 131 563 46
1327 2 1 2 -76537613 -110962229 19467611 -30159817 58 20 10 26 23 19 19 0 2 0 57 93 1236 96 56 40 55 56 406 372 35
1329 2 1 0 25652417 -79764816 -62699995 -82902704 48 0 0 1 0 0 0 0 0 0 48 95 1367 1 1 0 46 46 48 480 46
1331 2 1 0 21779281 -76962719 -56670957 -87251343 47 0 0 0 0 4 4 0 0 0 47 93 1359 8 0 8 45 45 55 473 45
1333 2 1 0 27662328 -104174296 -32424221 -91141087 43 0 0 2 0 1 1 0 0 0 43 85 1319 4 2 2 41 41 71 496 41
1336 2 1 2 -35094820 -71386587 -26177081 -67734944 52 11 1 13 12 10 4 6 0 0 52 110 3050 45 25 20 50 50 231 777 39
1338 2 1 2 -23202639 -69307173 -21722578 -87042187 54 8 2 11 10 3 2 1 1 0 54 108 2748 28 21 7 52 52 187 915 44
1340 2 1 0 -2148362 -45233772 -53990380 -99972537 56 4 0 10 4 6 5 3 0 0 55 109 3030 28 14 14 54 54 139 1032 49
1342 2 1 2 -25776416 -71484532 -8073617 -91533071 51 9 3 17 9 12 8 8 0 0 51 107 2828 57 29 28 49 49 231 743 40
1344 2 1 2 -34102884 -65467172 -1535107 -96795601 52 9 1 14 9 12 5 7 2 0 51 107 2910 50 24 26 49 50 227 840 40
1346 2 1 0 -13637295 -63895496 -24464735 -98740364 51 6 2 11 6 7 4 3 0 0 51 103 2760 33 19 14 49 49 161 912 43
1349 2 1 2 -78245871 -93039576 54100875 -73446381 45 15 9 25 17 15 14 3 8 0 45 79 1477 89 49 40 43 43 329 467 28
1351 2 1 2 -78472027 -120297577 52545909 -45421323 38 18 11 23 20 2 0 2 0 0 38 67 1434 56 52 4 36 36 332 304 18
1353 2 1 2 -69609969 -79450342 32091106 -71939805 37 12 7 21 14 5 3 4 2 0 37 69 1726 54 40 14 35 35 284 414 23
1355 2 1 2 -78726282 -117976608 70891890 -69089630 37 12 7 17 13 0 0 0 0 0 37 71 1687 36 36 0 35 35 244 387 23
1357 2 1 2 -63862527 -90764981 34394551 -72168581 41 13 8 18 14 4 0 4 0 0 40 78 1729 47 39 8 39 39 265 407 26
1359 2 1 2 -53686226 -104510582 47818274 -81837066 36 12 7 19 12 1 1 1 2 0 36 71 1677 43 38 5 34 34 253 385 22
1362 2 1 2 -50492597 -87380772 -7894847 -55192255 57 10 5 14 11 1 0 1 0 0 57 60 1046 31 29 2 55 55 222 417 45
1364 2 1 0 -7404177 -82514666 -24544299 -85334904 57 6 1 12 8 8 6 3 0 0 57 99 1421 36 19 17 55 55 199 690 49
1366 2 1 2 -20949007 -89443869 -13684003 -76266892 57 6 0 16 7 5 3 2 0 0 56 103 1396 32 22 10 55 55 216 511 48
1368 2 1 0 -14214516 -67771154 -37880879 -78054366 57 6 3 12 9 6 3 5 0 0 57 101 1340 35 21 14 55 55 206 617 49
1370 2 1 2 -39548115 -65692376 1763885 -95965488 56 7 4 7 7 2 0 2 1 0 56 81 1231 23 18 5 54 54 167 378 47
1372 2 1 2 -60246411 -75043000 -6697186 -57489090 57 13 6 24 16 5 3 2 0 0 56 107 1464 53 43 10 54 55 325 488 41
1374 2 1 0 2981045 -106131542 -126246 -95921620 55 5 3 12 5 3 0 3 0 0 55 95 1380 26 20 6 53 53 176 701 48
1375 2 1 2 -87991885 -32467803 19167870 -93494476 37 8 0 11 11 5 5 3 13 0 37 61 1610 45 19 26 35 35 194 309 27
1377 2 1 1 -74941808 -3971660 -6452363 -110150678 36 2 0 5 2 3 3 0 15 0 36 67 1729 28 7 21 34 34 98 299 32
1379 2 1 2 -60111030 -26357580 -2981907 -105303929 35 1 1 8 2 0 0 0 10 0 35 69 1497 20 10 10 33 33 106 372 32
1381 2 1 2 -73135503 -62302750 39805043 -95312274 38 7 3 21 11 4 1 3 5 0 37 67 1560 44 31 13 36 36 235 413 28
1383 2 1 2 -69167853 -21245270 4417789 -110473763 37 2 0 8 3 1 1 0 7 0 37 71 1818 19 10 9 35 35 117 343 33
1385 2 1 2 -78370353 -70678374 44231301 -88321464 36 11 2 18 13 7 7 1 5 0 36 66 1949 51 31 20 34 34 230 339 23
1387 2 1 2 -57645225 -31967417 -4405373 -102124718 35 0 0 7 1 0 0 0 17 0 35 69 2079 24 7 17 33 33 91 385 33
1388 2 1 3 -68877028 -93498487 -30703524 -4820795 39 27 2 31 28 2 2 1 0 0 39 73 1680 65 60 5 37 37 433 182 11
1390 2 1 0 -22755296 -95399274 -51097187 -25204074 37 16 1 28 20 2 1 1 0 0 37 73 1695 49 45 4 35 35 333 331 19
1392 2 1 3 -39442943 -107920277 -35872036 -10234497 37 19 2 28 23 6 5 1 0 0 37 65 1551 61 49 12 35 35 382 304 16
1394 2 1 0 14952404 -92392778 -20054351 -101582036 36 5 2 7 5 2 2 0 0 0 36 69 1313 18 14 4 34 34 117 493 29
1396 2 1 0 29037261 -111772396 -20923797 -95108802 35 4 0 8 5 0 0 0 0 0 35 68 1282 12 12 0 33 33 124 456 29
1398 2 1 2 -9149170 -116434018 12678718 -81688637 33 7 4 12 7 0 0 0 0 0 33 65 1212 23 23 0 31 31 157 382 24
1400 2 1 2 -10470200 -115122377 11480067 -80542274 33 7 3 10 8 0 0 0 0 0 33 65 1180 20 20 0 31 31 165 358 24
1402 2 1 2 -11977733 -121790503 9785814 -71620147 34 9 2 11 9 0 0 0 0 0 34 67 1309 22 22 0 32 32 185 407 23
1404 2 1 0 43449690 -119494554 -24867220 -97679144 34 4 0 7 5 0 0 0 0 0 34 67 1300 11 11 0 32 32 115 465 28
1406 2 1 0 36146944 -113010073 -17774190 -102890863 35 4 3 7 4 0 0 0 0 0 35 69 1368 14 14 0 33 33 116 490 29
1407 2 1 3 -46123682 -125324471 -16556907 -4065087 41 19 7 27 24 3 1 3 0 0 40 72 1184 60 53 7 38 39 390 247 19
1408 2 1 2 -70513931 -90960854 -2090826 -31616996 38 17 9 24 19 1 1 0 0 0 38 0 114 52 50 2 36 36 328 134 19
1410 2 1 2 -41950137 -110958895 -4671092 -38371829 43 12 7 29 14 0 0 0 0 0 43 16 262 48 48 0 41 41 327 227 29
1412 2 1 2 -83915450 -82253154 -15188648 -16763260 40 16 5 25 18 0 0 0 0 0 39 0 6 46 46 0 38 38 331 105 21
1414 2 1 2 -72043401 -86724933 4757409 -41467220 37 21 14 30 24 1 1 0 0 0 37 0 104 67 65 2 35 35 390 93 14
1416 2 1 3 -87427929 -91554643 -23485336 4180432 51 28 11 42 32 22 22 0 0 0 51 0 69 125 81 44 49 49 550 141 21
1418 2 1 2 -63746733 -102850727 -9788083 -19860923 39 19 7 28 23 1 1 0 0 0 39 6 270 56 54 2 37 37 382 144 18
1420 2 1 2 -48879398 -95662120 -6748504 -45376214 43 12 3 28 14 0 0 0 0 0 43 12 292 43 43 0 41 41 313 210 29
1421 2 1 0 -14122008 -40161984 -34393130 -111191968 41 3 2 4 3 4 2 2 0 0 41 75 1821 17 9 8 39 39 90 537 36
1423 2 1 2 -68698404 -48110286 -729500 -83612775 44 7 0 18 11 1 1 0 0 0 44 0 502 27 25 2 42 42 233 275 35
1425 2 1 2 -53396147 -120421645 24235224 -42788465 34 19 9 28 21 2 2 0 0 0 34 55 1632 60 56 4 32 32 366 224 13
1427 2 1 0 2930929 -90253416 -16863165 -95525000 43 4 0 9 4 1 1 0 0 0 42 85 2042 15 13 2 41 41 161 590 37
1429 2 1 0 10615793 -76108977 -40647324 -93419269 43 2 0 5 3 0 0 0 0 0 43 85 1932 7 7 0 41 41 98 549 39
1431 2 1 2 -51906465 -115773132 30973021 -58625362 42 12 3 25 15 1 1 0 0 0 42 81 2212 42 40 2 40 40 305 482 27
1433 2 1 2 -46049165 -100494429 -12939268 -39874393 43 13 0 17 17 2 2 0 0 0 43 69 1776 34 30 4 41 41 266 423 27
1434 2 1 2 -89363495 -37818789 1061720 -67875150 39 13 4 21 14 6 6 3 2 0 39 6 237 55 38 17 37 37 268 111 24
1436 2 1 2 -75802862 -87547347 55944880 -84885747 44 14 9 28 16 9 9 2 0 0 44 4 165 71 51 20 42 42 331 390 28
1438 2 1 3 -108661486 -48411639 -28340130 -7182197 44 19 6 34 27 19 16 4 0 0 44 11 401 98 59 39 42 42 446 119 22
1440 2 1 2 -106167456 -41152008 53400598 -95655026 34 24 14 26 25 7 5 6 4 0 34 17 626 86 64 22 32 32 393 47 8
1442 2 1 2 -80567625 -71010008 11512434 -50338338 37 18 9 24 20 10 7 4 0 0 37 6 229 72 51 21 35 35 338 141 17
1444 2 1 2 -101437395 -71847511 44088373 -62838105 47 19 6 33 22 18 16 3 6 0 47 10 381 101 58 43 45 45 405 347 26
1446 2 1 2 -74300613 -76986916 30870250 -73065507 39 15 8 24 18 9 7 2 0 0 39 7 335 65 47 18 37 37 325 154 22
1447 2 1 2 -42989504 -56171680 -773911 -97424138 32 1 0 20 4 2 2 0 0 0 32 63 1166 25 21 4 30 30 162 363 29
1449 2 1 2 -37115321 -74049125 5400271 -91797797 32 1 0 16 2 0 0 0 0 0 32 62 918 17 17 0 30 30 157 318 29
1451 2 1 2 -21294022 -84356555 9512781 -102051501 32 1 0 16 1 0 0 0 0 0 31 62 1146 17 17 0 29 30 136 364 28
1453 2 1 0 23541949 -78612359 -11978552 -129422978 18 0 0 7 0 3 3 0 0 0 18 35 558 13 7 6 16 16 64 224 16
1455 2 1 2 -24056169 -93613787 34493974 -114187684 25 3 1 8 3 0 0 0 0 0 25 49 959 12 12 0 23 23 103 260 20
1457 2 1 2 -34882236 -78138912 7397215 -92473369 30 0 0 17 3 0 0 0 0 0 30 59 935 17 17 0 28 28 147 336 28
1459 2 1 2 -55310353 -61153776 7823767 -88490536 31 2 1 20 5 4 4 0 0 0 31 61 1039 31 23 8 29 29 181 324 27
1460 2 1 2 -75741546 -71344073 -18063578 -29620178 32 18 10 22 19 3 3 0 0 0 32 0 59 56 50 6 30 30 316 50 12
1462 2 1 2 -77985444 -63678121 -2696145 -51297238 34 12 8 18 12 3 3 0 0 0 34 0 139 44 38 6 32 32 243 91 20
1464 2 1 2 -73017225 -73394731 -16919320 -31127057 33 15 9 20 16 4 4 0 0 0 33 0 129 52 44 8 31 31 279 72 16
1466 2 1 2 -64513575 -94612961 -1837322 -33296719 27 16 12 18 16 0 0 0 0 0 27 0 76 46 46 0 25 25 269 45 9
1468 2 1 2 -73611389 -77134047 14919407 -59637078 32 13 12 18 13 1 1 0 0 0 32 0 50 45 43 2 30 30 239 77 17
1470 2 1 2 -68264904 -71132489 -888486 -53850099 30 13 11 17 13 1 1 0 0 0 29 0 80 43 41 2 28 28 228 75 15
1472 2 1 3 -57641468 -77751176 -34381500 -24344661 36 16 8 23 18 3 3 0 0 0 35 4 88 53 47 6 34 34 299 82 17
1473 2 1 2 -81497074 -96583725 13641244 -31165773 56 26 6 33 27 12 11 3 3 0 56 85 2426 94 65 29 54 54 459 401 28
1475 2 1 2 -114507580 -90283476 42489705 -30012935 49 29 14 32 29 3 2 1 9 0 49 75 2257 90 75 15 47 47 478 234 18
1477 2 1 2 -118762898 -82617109 33949842 -25225823 51 30 13 36 30 6 5 1 11 0 50 72 2262 102 79 23 49 49 511 253 19
1479 2 1 2 -78074663 -86095636 1910537 -32050030 47 29 12 33 31 9 8 1 2 0 47 69 1736 94 74 20 45 45 474 208 16
1481 2 1 2 -104478533 -74568819 13946523 -30450066 51 33 18 39 36 3 3 1 10 0 51 77 2168 107 90 17 49 49 554 218 16
1483 2 1 2 -96219621 -83675864 40440949 -53999789 50 21 14 34 26 3 2 1 4 0 50 71 2243 79 69 10 48 48 444 371 27
1485 2 1 2 -98409800 -80255512 27025782 -42403958 50 26 17 39 29 1 1 0 9 0 50 67 2274 93 82 11 48 48 495 308 22
1486 2 1 0 15432699 -100154475 -41883557 -73832531 57 1 1 11 4 0 0 0 0 0 57 113 1781 13 13 0 55 55 174 673 54
1487 2 1 3 -60888516 -95081191 -36530736 -4250681 37 27 9 30 29 17 17 0 0 0 37 1 15 100 66 34 35 35 439 12 8
1489 2 1 2 -80183033 -28639540 13636405 -106632322 48 2 0 6 2 2 2 0 0 0 48 34 1134 12 8 4 46 46 101 474 44
1491 2 1 2 -46658506 -55154507 7060711 -106075024 42 0 0 6 1 1 1 0 0 0 42 80 1991 8 6 2 40 40 93 496 40
1493 2 1 2 -46268420 -48665608 -1000027 -104100773 43 1 0 15 1 3 3 0 0 0 43 78 1683 22 16 6 41 41 142 478 40
1495 2 1 2 -51461685 -43308228 -384065 -105350814 42 1 0 15 2 6 6 0 0 0 42 69 1805 28 16 12 40 40 152 540 39
1497 2 1 2 -46226301 -53448423 499695 -101464667 42 1 0 15 1 3 3 0 0 0 42 83 2025 22 16 6 40 40 159 480 39
1499 2 1 2 -61295730 -43841736 7830611 -101509770 42 0 0 18 4 4 2 2 0 0 42 82 2031 26 18 8 40 40 179 492 40
1501 2 1 2 -32891892 -68409413 2505248 -101835007 41 0 0 0 0 0 0 0 0 0 41 81 1901 0 0 0 39 39 58 502 39
1502 2 1 2 -71825266 -23028663 10558108 -116551831 35 0 0 9 0 0 0 0 0 0 35 0 25 9 9 0 33 33 96 231 33
1504 2 1 2 -50227948 -25599182 -6381187 -118468179 34 0 0 10 1 0 0 0 0 0 34 0 54 10 10 0 32 32 93 287 32
1506 2 1 2 -74482051 -23039013 16662332 -120218932 37 0 0 3 0 1 1 0 0 0 37 0 0 5 3 2 35 35 79 237 35
1508 2 1 2 -66190161 -24125677 8536817 -118940399 35 0 0 11 1 0 0 0 0 0 34 0 35 11 11 0 32 33 110 223 32
1510 2 1 2 -44545027 -36204202 -779855 -119002301 35 0 0 5 0 0 0 0 0 0 35 0 33 5 5 0 33 33 74 245 33
1512 2 1 2 -66950511 -32544856 16348764 -118193648 35 0 0 2 0 0 0 0 0 0 35 0 270 2 2 0 33 33 61 274 33
1514 2 1 2 -59616729 -23900579 2334947 -119423625 35 0 0 7 0 0 0 0 0 0 35 0 11 7 7 0 33 33 84 238 33
1515 2 1 2 -62627632 -134241673 7420755 -11667401 50 45 21 47 45 6 6 0 0 0 50 59 1126 125 113 12 48 48 689 38 3
1516 2 1 3 -81183841 -76936758 -20187858 -17489409 28 14 7 17 14 0 0 0 0 0 28 0 91 38 38 0 26 26 250 10 12
1518 2 1 2 -77478446 2683644 8598248 -130094481 29 3 2 9 3 1 0 1 1 0 29 1 86 17 14 3 27 27 122 140 24
1520 2 1 2 -84049767 -68256760 -11529854 -32373859 27 9 5 15 10 0 0 0 0 0 27 0 66 29 29 0 25 25 195 9 16
1522 2 1 2 -109586953 -45535224 9074114 -50230545 27 8 5 13 10 1 1 0 0 0 27 0 60 28 26 2 25 25 178 17 17
1524 2 1 2 -88895448 -60781082 -7150497 -40342409 28 9 5 13 10 0 0 0 0 0 28 0 55 27 27 0 26 26 187 8 17
1526 2 1 2 -26324927 -50762834 -5260604 -117223362 39 6 3 6 6 2 2 2 0 0 39 77 2102 21 15 6 37 37 108 822 31
1528 2 1 2 -47370241 -48639963 17884709 -121150981 40 8 5 8 8 4 1 3 2 0 40 79 2174 31 21 10 38 38 148 780 30
1530 2 1 2 -31907531 -65247488 14625254 -117165357 40 7 4 7 7 5 3 3 1 0 40 79 2195 30 18 12 38 38 140 834 31
1532 2 1 2 -44953250 -72289557 21165203 -104507022 41 9 5 9 9 4 3 3 1 0 41 81 2203 34 23 11 39 39 172 767 30
1534 2 1 2 -52933635 -77014758 12237925 -78426060 41 13 4 14 13 6 2 5 0 0 41 79 2194 44 31 13 39 39 230 693 26
1537 2 1 2 -11626324 -86792199 20585708 -121111689 25 0 0 4 0 0 0 0 0 0 24 48 1314 4 4 0 23 23 77 351 22
1539 2 1 2 -10784786 -82689696 10706639 -116437821 24 0 0 10 0 0 0 0 0 0 24 47 1258 10 10 0 22 22 74 349 22
1541 2 1 2 -12713821 -80229611 15512855 -121694033 25 0 0 4 0 0 0 0 0 0 25 49 1300 4 4 0 23 23 54 388 23
1543 2 1 2 -37277880 -52782071 9733305 -118576402 30 1 0 5 1 0 0 0 1 0 30 57 1527 7 6 1 28 28 80 451 27
1545 2 1 2 -15206306 -70397358 8517475 -121836969 28 0 0 11 0 1 0 1 0 0 27 53 1494 13 11 2 26 26 82 451 25
1547 2 1 2 -20040709 -76157842 11376236 -114827599 26 0 0 12 0 0 0 0 0 0 26 51 1407 12 12 0 24 24 94 406 24
1549 2 1 2 -40956187 -21144461 -5099117 -129813730 28 1 0 8 2 1 1 0 2 0 28 51 1303 13 9 4 26 26 102 403 25
1550 2 1 0 14952404 -92392778 -20054351 -101582036 36 5 2 7 5 2 2 0 0 0 36 69 1313 18 14 4 34 34 117 493 29
1553 2 1 2 -87925627 -63789870 -16104508 -29098964 37 14 9 23 17 0 0 0 0 0 37 0 7 46 46 0 35 35 310 81 21
1555 2 1 2 -760930 -107396902 676155 -93030954 40 5 1 5 5 0 0 0 0 0 39 77 1826 11 11 0 38 38 135 501 32
1557 2 1 2 -45187526 -122219226 19832964 -45636111 41 13 7 22 17 0 0 0 0 0 41 79 1934 42 42 0 39 39 293 436 26
1559 2 1 0 -9608129 -56118659 -33427107 -101435089 40 2 0 6 3 1 1 0 0 0 40 77 1572 10 8 2 38 38 92 467 36
1561 2 1 2 -14725926 -78576383 -9501357 -96484750 42 5 0 5 5 1 1 0 0 0 42 81 1670 12 10 2 40 40 132 473 35
1563 2 1 0 -1471632 -49481421 -44670916 -104225096 43 0 0 9 1 2 2 0 0 0 43 25 828 13 9 4 41 41 106 529 41
1565 2 1 1 -39257704 -22340126 -35648208 -103860007 43 1 0 4 2 0 0 0 0 0 43 0 487 5 5 0 41 41 82 269 40
1567 2 1 1 -90544189 -7043553 -7451117 -96201513 45 5 2 13 8 1 1 0 0 0 44 0 404 22 20 2 43 43 184 221 37
1568 2 1 2 -114061047 -59532653 46972257 -64687124 40 26 20 31 27 9 7 6 1 0 40 19 760 100 77 23 38 38 438 83 12
1570 2 1 2 -80267607 -46709998 19163171 -76796945 31 26 22 28 26 18 12 10 5 0 31 17 642 121 76 45 29 29 405 15 3
1572 2 1 2 -79378565 -70412206 -21655588 -24190993 38 17 4 30 19 5 5 2 0 0 38 0 72 63 51 12 36 36 363 178 19
1574 2 1 2 -83879636 -74196461 52018623 -88575548 48 12 4 26 14 23 22 2 3 0 48 5 177 92 42 50 46 46 313 460 34
1576 2 1 3 -117123709 -80645678 -12572952 11249249 60 34 11 40 36 37 34 7 4 0 59 29 845 167 85 82 58 58 580 253 24
1578 2 1 2 -75454721 -77737911 24343035 -63796165 37 12 2 19 13 5 5 3 0 0 37 5 197 46 33 13 35 35 253 322 23
1580 2 1 3 -108661486 -48411639 -28340130 -7182197 44 19 6 34 27 19 16 4 0 0 44 11 401 98 59 39 42 42 446 119 22
1581 2 1 2 -51883425 -75085782 8679467 -76937951 31 3 0 23 6 1 1 0 0 0 31 61 1116 28 26 2 29 29 202 326 26
1583 2 1 2 -30421575 -88430666 50260045 -125604217 19 3 0 5 3 4 4 0 0 0 19 37 624 16 8 8 17 17 89 202 14
1585 2 1 2 -42671418 -55209761 -2049157 -97796636 31 0 0 15 3 4 4 0 0 0 31 61 1166 23 15 8 29 29 149 374 29
1587 2 1 2 -24036574 -95478556 23757806 -102562327 32 0 0 11 3 0 0 0 0 0 31 62 922 11 11 0 29 30 138 319 29
1589 2 1 2 -33482662 -77030656 15591107 -103269380 31 1 0 12 5 1 1 0 0 0 31 61 935 15 13 2 29 29 144 333 28
1591 2 1 2 -12839789 -69826239 10248839 -125804929 18 0 0 5 0 1 1 0 0 0 18 35 627 7 5 2 16 16 56 213 16
1593 2 1 2 -75741546 -71344073 -18063578 -29620178 32 18 10 22 19 3 3 0 0 0 32 0 59 56 50 6 30 30 316 50 12
1595 2 1 2 -77985444 -63678121 -2696145 -51297238 34 12 8 18 12 3 3 0 0 0 34 0 139 44 38 6 32 32 243 91 20
1597 2 1 2 -73017225 -73394731 -16919320 -31127057 33 15 9 20 16 4 4 0 0 0 33 0 129 52 44 8 31 31 279 72 16
1599 2 1 2 -72492989 -60047273 5184344 -71991064 33 8 3 12 8 0 0 0 0 0 33 0 60 23 23 0 31 31 170 113 23
1601 2 1 2 -71432813 -70971850 -18408688 -33336491 30 16 8 18 16 3 3 0 0 0 30 0 91 48 42 6 28 28 266 56 12
1603 2 1 3 -72844614 -72029584 -27985453 -21414997 35 18 5 24 18 8 8 0 0 0 35 0 40 63 47 16 33 33 316 70 15
1605 2 1 2 -92243899 -90612757 27760239 -36845508 51 31 16 37 31 5 3 3 8 0 51 80 2308 103 84 19 49 49 518 267 18
1607 2 1 2 -83143115 -59564072 25638685 -80264062 53 16 6 21 18 4 4 0 6 0 53 90 2375 57 43 14 51 51 305 560 35
1609 2 1 2 -108142327 -78346782 63225298 -69600918 51 19 13 28 21 4 3 2 6 0 51 75 2264 75 60 15 49 49 388 401 30
1611 2 1 2 -114020683 -85709557 29797884 -26990843 44 32 13 33 33 1 1 0 9 0 44 65 1974 89 78 11 42 42 498 133 10
1613 2 1 2 -94445497 -83295480 26311976 -43295140 48 27 17 33 29 3 2 1 7 0 48 69 2217 90 77 13 46 46 471 273 19
1615 2 1 2 -94362659 -80121581 14455847 -35408147 50 35 21 36 35 3 2 1 8 0 49 75 2442 106 92 14 48 48 537 185 13
1617 3 1 2 -131044267 -31339108 -7224212 -28815275 45 18 2 32 20 8 7 1 1 0 45 8 937 69 52 17 43 43 393 122 25
1619 3 1 2 -143095737 -22488618 -3398614 -27448282 40 25 10 31 29 1 1 0 6 0 40 2 919 74 66 8 38 38 450 39 13
1621 3 1 2 -143520380 -17246604 -4341806 -32222704 39 25 12 32 30 4 4 0 3 0 39 2 764 80 69 11 37 37 438 44 13
1623 3 1 3 -95679072 -35809217 -35103603 -27422680 41 18 6 30 24 9 9 0 2 0 41 18 791 74 54 20 39 39 404 68 21
1625 3 1 3 -98692257 -41323714 -78685693 23363692 47 26 3 37 33 21 19 7 1 0 47 20 638 114 66 48 45 45 497 80 20
1627 3 1 2 -86120171 -56586933 -8733146 -39790576 43 22 7 28 24 10 5 5 2 0 43 1 21 79 57 22 41 41 400 171 19
1629 3 1 2 -117730116 -36545302 -14573648 -27960368 81 16 8 30 23 70 62 32 22 0 80 79 1210 242 54 188 79 79 417 845 62
1631 3 1 2 -113820610 -46388292 -9063068 -17425193 41 23 9 33 24 20 13 12 18 0 41 54 2080 128 65 63 39 39 435 143 16
1633 3 1 2 -111077189 -39283911 2356315 -42556616 47 19 7 31 22 15 7 9 4 0 47 40 1171 92 57 35 45 45 410 159 26
1635 3 1 2 -123404256 -28256425 21966313 -67088224 56 15 0 26 18 13 7 6 7 0 55 42 1516 74 41 33 54 54 340 244 39
1637 3 1 2 -88069698 -67602964 14937590 -47559251 44 17 5 26 17 21 19 4 11 0 44 41 1055 103 48 55 42 42 347 320 25
1639 3 1 3 -127586161 -39366019 -23073704 -4608496 49 27 5 34 28 11 9 2 8 0 49 55 1497 96 66 30 47 47 469 71 20
1641 3 1 3 -120597499 -26830698 -24863752 -19437332 50 19 6 35 26 11 10 3 14 0 49 58 1534 98 60 38 48 48 439 81 27
1643 3 1 2 -121589294 -31405035 -5865137 -33057474 56 23 2 35 24 18 9 14 9 0 56 79 2112 110 60 50 54 54 467 196 32
1645 3 1 2 -114187981 -63838711 -7337195 -11316223 57 21 1 30 23 30 28 5 18 0 57 81 1876 133 52 81 55 55 415 277 34
1647 3 1 2 -67963503 -23384796 -11699751 -95334665 31 3 0 4 3 0 0 0 3 0 31 61 1340 10 7 3 29 29 100 42 26
1649 3 1 2 -70751366 -100590207 39370347 -58488570 45 23 14 32 23 12 12 0 5 0 45 70 1745 98 69 29 43 43 417 249 20
1651 3 1 2 -148426748 -28660767 -2731425 -15015636 50 27 10 36 28 11 11 0 12 0 49 0 3 107 73 34 48 48 496 64 20
1653 3 1 2 -119043794 -34669843 -19592297 -23295554 38 23 9 27 23 4 4 0 2 0 38 0 0 69 59 10 36 36 392 39 13
1655 3 1 3 -110502508 -61309584 -36830522 11112982 55 24 6 41 26 23 23 0 2 0 55 0 76 119 71 48 53 53 497 125 30
1657 3 1 3 -126531478 -81434819 -10460662 15767035 65 34 8 48 37 41 39 3 2 0 65 2 186 175 90 85 63 63 626 283 29
1659 3 1 2 -114375488 -40830268 -11533601 -28839203 42 26 7 33 28 12 12 1 2 0 42 12 540 93 66 27 40 40 447 60 15
1661 3 1 2 -109088649 -43548324 -8199449 -28356948 53 20 7 39 27 18 10 9 20 0 53 87 2339 123 66 57 51 51 494 195 31
1663 3 1 3 -133585359 -31343341 -21709927 -7018474 55 28 3 43 32 11 7 6 10 0 55 31 1329 108 74 34 53 53 558 160 25
1665 3 1 3 -116212639 -59958365 -42282636 24113441 56 34 11 39 36 27 23 8 9 0 56 62 1342 151 84 67 54 54 575 98 20
1667 3 1 3 -109919131 -23956222 -41419863 -17778980 50 26 2 38 29 19 15 9 10 0 50 58 1506 119 66 53 48 48 493 127 22
1669 3 1 3 -99594301 -73297189 -10349620 -7422394 54 29 4 41 33 21 18 10 25 0 54 77 2404 148 74 74 52 52 542 369 23
1671 3 1 3 -112685117 -47612788 -16829930 -12926892 56 25 5 38 28 17 10 9 19 0 56 63 1948 123 68 55 54 54 498 210 29
1673 3 1 3 -112467970 -70758617 -16988717 6335244 56 29 8 40 32 27 25 4 18 0 56 76 1739 151 77 74 54 54 548 194 25
1675 3 1 2 -122364598 -66381307 11455568 -21255547 54 30 6 35 33 15 14 1 5 0 53 30 1225 106 71 35 52 52 534 128 20
1677 3 1 3 -101056557 -29162032 -54722813 -12388441 54 21 2 38 27 12 12 1 5 0 54 66 1697 91 61 30 52 52 490 127 32
1679 3 1 3 -109636815 -66498661 -31475220 11507684 57 27 5 39 31 26 24 5 6 0 57 43 1258 132 71 61 55 55 526 183 28
1681 3 1 2 -124253976 -37287824 -8876833 -24246501 56 23 8 44 28 22 20 4 14 0 56 62 1592 135 75 60 54 54 517 172 31
1683 3 1 3 -122876832 -39311759 -40865513 5295801 48 27 3 37 30 16 16 0 7 0 48 58 1562 106 67 39 46 46 500 70 19
1685 3 1 2 -126691272 -74798390 17104649 -16722163 67 22 7 30 23 44 43 3 29 0 67 77 1813 178 59 119 65 65 423 341 43
1687 3 1 3 -119341000 -55381417 -16681806 -2922208 52 24 8 39 30 4 4 1 18 0 52 91 2473 98 71 27 50 50 511 156 26
1689 3 1 3 -112987164 -42504759 -25316853 -12573945 58 24 3 43 29 20 16 6 12 0 58 102 2777 124 70 54 56 56 524 234 32
1691 3 1 3 -98015642 -32064460 -55183821 -8835322 52 23 4 40 31 20 15 8 4 0 52 54 1204 114 67 47 50 50 522 161 27
1693 3 1 3 -103103488 -72216042 -29779443 7654958 60 30 7 43 36 21 17 5 3 0 60 65 1390 126 80 46 58 58 578 190 28
1695 3 1 2 -114123009 -65977108 10044098 -26949705 54 22 9 35 24 6 4 2 5 0 54 52 1544 83 66 17 52 52 457 141 30
1697 3 1 3 -94316789 -87873537 -15255623 2312302 55 30 11 41 34 22 19 3 7 0 54 54 1058 133 82 51 53 53 551 166 22
1699 3 1 2 -128146034 -43557528 -9766689 -12893215 60 23 6 39 27 10 6 5 17 0 59 70 2157 106 68 38 58 58 491 245 35
1701 3 1 3 -93456368 -50270834 -48295318 -3922495 48 21 6 36 27 19 19 0 4 0 48 55 1533 105 63 42 46 46 453 71 25
1703 3 1 3 -110936878 -45308977 -19311042 -17641274 49 28 6 35 31 14 9 9 5 0 48 72 1882 106 69 37 47 47 505 108 18
1705 3 1 3 -97569369 -41391544 -67702999 10419125 47 23 7 37 29 5 5 0 2 0 47 89 2163 79 67 12 45 45 486 80 22
1707 3 1 3 -109488222 -49387144 -30050840 -6469457 49 28 12 39 30 15 15 0 7 0 49 91 2067 116 79 37 47 47 521 69 19
1709 3 1 3 -99422930 -51843352 -23098028 -20258083 46 25 13 37 30 9 9 0 5 0 46 81 1861 98 75 23 44 44 492 76 19
1711 3 1 3 -108418363 -30653747 -51730067 -2856083 50 24 7 37 29 14 14 1 8 0 49 93 2164 105 68 37 48 48 478 82 24
1713 3 1 0 -15672204 -39112723 -63207467 -82503991 31 0 0 6 0 0 0 0 0 0 31 57 1737 6 6 0 29 29 65 55 29
1715 3 1 3 -105912533 -44076335 -49670287 2661875 45 25 3 37 30 15 15 0 6 0 45 89 2657 101 65 36 43 43 490 47 18
1717 3 1 1 -110031649 -25233087 -27593086 -29353460 42 17 2 32 22 9 8 2 11 0 42 83 2429 81 51 30 40 40 378 64 24
1719 3 1 3 -117736804 -40579393 -41890370 6885060 49 26 5 38 30 10 10 0 17 0 49 95 2605 106 69 37 47 47 477 61 21
1721 3 1 3 -112336115 -38686926 -38789735 -2686652 45 22 5 34 26 10 10 0 15 0 45 89 2675 96 61 35 43 43 444 77 20
1723 3 1 3 -125405722 -36646588 -48932240 15130830 46 31 5 37 32 7 7 0 17 0 46 85 2584 104 73 31 44 44 510 50 13
1725 3 1 2 -103151586 -50759819 -1809280 -37691334 44 28 10 40 32 9 9 0 13 0 43 86 2643 109 78 31 41 42 521 36 13
1727 3 1 3 -114245053 -76520421 -22974514 10854535 74 24 7 50 29 44 44 0 8 0 74 10 249 177 81 96 72 72 593 281 48
1729 3 1 1 -110655290 -22334818 -31151779 -25806489 54 18 4 34 22 18 12 6 14 0 54 52 1517 106 56 50 52 52 423 170 34
1731 3 1 2 -128279641 -35222271 -7718398 -18281867 57 26 8 40 30 12 5 8 20 0 57 43 1614 119 74 45 55 55 536 198 28
1733 3 1 2 -110836820 -44701834 -7216241 -30035177 49 27 11 39 31 16 13 3 7 0 49 14 636 116 77 39 47 47 515 90 20
1735 3 1 3 -60832350 -71581608 -47632087 -7899846 45 20 10 28 24 23 10 15 0 0 45 20 523 106 58 48 43 43 406 237 23
1737 3 1 2 -113630636 -40914660 3064053 -42729577 45 26 12 38 29 17 14 3 6 0 45 11 568 116 76 40 43 43 485 68 17
1739 3 1 2 -104678816 -40653599 -12741454 -35929204 44 26 11 35 27 11 11 0 6 0 44 11 242 100 72 28 42 42 467 62 16
1741 3 1 3 -73494805 -63185970 -63889481 5344636 44 21 8 33 24 17 17 1 1 0 44 53 880 98 62 36 42 42 428 78 21
1743 3 1 2 -66366394 -88199901 -13472930 -26711347 48 31 12 41 36 20 19 2 5 0 48 34 588 130 84 46 46 46 562 61 15
1745 3 1 3 -93688430 -87104216 -51430992 34445018 58 34 4 42 34 27 25 6 7 0 58 31 603 145 80 65 56 56 587 139 22
1747 3 1 3 -105638292 -60346561 -15207736 -13994630 56 25 9 37 31 18 16 3 6 0 55 32 481 114 71 43 54 54 510 163 28
1749 3 1 3 -107470305 -39713498 -39318933 -6628068 47 26 10 35 29 20 19 3 6 0 47 35 874 119 71 48 45 45 458 66 19
1751 3 1 2 -119521912 -29670079 -13760589 -30019644 42 23 14 32 27 4 3 1 10 0 41 26 620 87 69 18 40 40 433 55 16
1753 3 1 2 -109555328 -67074238 19287359 -34487646 41 24 10 32 25 8 5 3 12 0 41 26 697 94 66 28 39 39 437 153 15
1755 3 1 2 -118702571 -40063830 2040077 -36078599 44 23 6 36 27 8 5 3 7 0 44 5 471 88 65 23 42 42 461 228 20
1758 3 1 3 -20409973 -118447189 -54013694 -3072518 45 13 3 33 19 0 0 0 0 0 45 89 1061 49 49 0 43 43 381 237 30
1760 3 1 3 -23617522 -121906046 -45765965 -6173680 45 17 2 28 21 0 0 0 0 0 45 89 1085 47 47 0 43 43 373 207 26
1762 3 1 3 -27567988 -120466389 -61578561 13915666 47 20 6 38 25 0 0 0 0 0 47 89 1062 64 64 0 45 45 454 200 25
1764 3 1 3 -35887733 -125049931 -24482482 -8954869 40 19 6 23 20 0 0 0 0 0 40 79 1274 48 48 0 38 38 327 222 19
1766 3 1 3 -30577141 -123603943 -72939856 30933267 49 22 5 35 27 0 0 0 0 0 49 95 1101 62 62 0 47 47 469 189 25
1768 3 1 0 3272863 -97302951 -64058610 -37690617 48 6 1 32 14 0 0 0 0 0 47 95 1059 39 39 0 46 46 325 309 40
1770 3 1 3 -18247884 -112427277 -81402697 17000552 46 21 2 35 23 0 0 0 0 0 46 91 1047 58 58 0 44 44 435 182 23
1772 3 1 3 -42925177 -124283503 -52622208 24226851 46 22 4 32 25 0 0 0 0 0 46 91 1381 58 58 0 44 44 434 220 22
1774 3 1 3 -33051749 -114912296 -28837440 -19065395 43 13 3 29 16 0 0 0 0 0 43 83 1337 45 45 0 41 41 334 305 28
1776 3 1 3 -40570717 -110135259 -32998604 -11678259 45 14 4 29 18 0 0 0 0 0 45 89 1324 47 47 0 43 43 338 288 29
1778 3 1 3 -39605309 -125790655 -25469755 -3781205 43 18 9 29 20 0 0 0 0 0 43 83 1266 56 56 0 41 41 378 236 23
1780 3 1 3 -28635283 -134350884 -24507014 -8881554 40 24 4 35 28 0 0 0 0 0 40 77 1191 63 63 0 38 38 456 140 14
1782 3 1 3 -40501005 -131333902 -39968525 16164329 41 21 6 28 22 0 0 0 0 0 41 81 1223 55 55 0 39 39 400 170 18
1784 3 1 2 -26561971 -112075121 -9485807 -51079021 39 10 0 15 10 0 0 0 0 0 39 77 1208 25 25 0 37 37 215 270 27
1786 3 1 3 -45665205 -130823743 -27713019 7634872 41 20 6 28 23 1 1 0 0 0 40 73 1195 56 54 2 38 39 385 186 18
1788 3 1 0 9454533 -103492416 -16559172 -88486182 39 4 0 5 4 0 0 0 0 0 39 77 1181 9 9 0 37 37 110 327 33
1790 3 1 2 -27371940 -122468508 17167839 -64096002 40 7 2 12 8 0 0 0 0 0 40 79 1266 21 21 0 38 38 194 372 31
1792 3 1 0 -10030438 -101208326 -17936888 -69663593 41 6 0 8 6 0 0 0 0 0 41 81 1268 14 14 0 39 39 143 360 33
1794 3 1 0 3300574 -85759541 -31172639 -85983904 42 4 0 6 5 0 0 0 0 0 41 83 1229 10 10 0 39 40 114 339 35
1796 3 1 2 -28209237 -95691647 -4195112 -70225091 42 8 3 12 8 1 1 0 0 0 42 81 1225 25 23 2 40 40 184 320 32
1798 3 1 2 -19634988 -111992990 -5801975 -61976193 41 7 0 10 7 0 0 0 0 0 40 80 1257 17 17 0 38 39 169 310 31
1800 3 1 0 5692176 -91476474 -54322802 -59505746 51 7 0 18 12 0 0 0 0 0 51 101 1208 25 25 0 49 49 224 294 42
1802 3 1 3 -32076623 -117496806 -29598205 -19899553 47 16 4 21 17 1 1 0 0 0 46 90 1072 43 41 2 44 45 300 267 28
1804 3 1 0 -21997834 -99197851 -26240120 -51929696 41 11 2 12 12 0 0 0 0 0 41 81 874 25 25 0 39 39 208 194 28
1806 3 1 2 -31934464 -97488611 -10246839 -60255185 41 8 2 11 10 0 0 0 0 0 40 79 1148 21 21 0 38 39 179 297 30
1808 3 1 2 -44320508 -112177832 -19889392 -21818806 42 16 3 17 16 3 3 0 0 0 42 79 1211 42 36 6 40 40 277 254 24
1810 3 1 2 -37972048 -111953439 13286017 -62289121 40 10 6 12 10 0 0 0 0 0 39 77 1138 28 28 0 37 38 191 243 27
1812 3 1 2 -24329668 -109604010 -7342066 -58767492 39 8 0 8 8 0 0 0 0 0 39 77 1168 16 16 0 37 37 160 261 29
1814 3 1 0 7446116 -115638186 -6453592 -85208110 40 4 0 6 4 0 0 0 0 0 39 79 1320 10 10 0 38 38 110 371 33
1816 3 1 0 10062991 -77362753 -39289648 -93092168 40 2 0 6 4 0 0 0 0 0 40 79 1289 8 8 0 38 38 99 389 36
1818 3 1 2 -45800505 -99339566 -12881446 -40301209 43 10 2 20 14 0 0 0 0 0 43 81 1364 32 32 0 41 41 268 341 31
1820 3 1 0 -3265646 -108011076 -6769089 -80446645 42 6 3 14 8 2 2 0 0 0 42 81 1172 27 23 4 40 40 196 340 34
1822 3 1 3 -20515121 -112920159 -75609557 11988319 46 17 0 38 24 0 0 0 0 0 46 91 1005 55 55 0 44 44 437 182 26
1824 3 1 3 -24356760 -104179811 -65397392 -3130618 52 17 1 33 20 0 0 0 0 0 51 101 1169 51 51 0 49 50 380 254 32
1826 3 1 3 -21950538 -118476748 -41675981 -12900184 42 14 6 27 18 0 0 0 0 0 42 81 941 47 47 0 40 40 321 203 26
1828 3 1 0 -13344474 -90305000 -31575437 -63437745 45 9 2 16 10 1 1 0 0 0 45 87 1074 29 27 2 43 43 219 301 34
1830 3 1 0 19963749 -69864987 -69910421 -80142689 50 3 0 7 4 0 0 0 0 0 49 98 1180 10 10 0 47 48 103 338 45
1832 3 1 0 -23616768 -95185881 -23741042 -56673040 43 9 0 14 9 0 0 0 0 0 43 85 1300 23 23 0 41 41 199 316 32
1834 3 1 0 18723660 -93786494 -38642762 -85869628 41 1 0 8 2 0 0 0 0 0 41 81 1264 9 9 0 39 39 99 380 38
1836 3 1 0 -22290076 -94818912 -24287334 -57240730 43 7 0 17 10 0 0 0 0 0 43 81 1399 24 24 0 41 41 204 374 34
1838 3 1 3 -29961207 -108370855 -33792427 -24863259 43 13 0 29 15 0 0 0 0 0 43 85 1420 42 42 0 41 41 308 316 28
1840 3 1 0 5788960 -116518092 -10206590 -79750612 43 4 1 10 5 0 0 0 0 0 43 85 1450 15 15 0 41 41 147 444 37
1842 3 1 3 -50339854 -118125077 -49753231 21326837 51 21 5 36 26 0 0 0 0 0 51 96 1247 62 62 0 49 49 452 224 28
1844 3 1 0 10327518 -91701532 -48342928 -69581453 47 6 1 14 10 0 0 0 0 0 47 92 1033 21 21 0 45 45 179 269 39
1846 3 1 2 -23427594 -108289415 -11409003 -56461662 43 9 0 12 10 0 0 0 0 0 43 85 1336 21 21 0 41 41 208 346 32
1848 3 1 3 -53135331 -97997861 -24213514 -19911758 44 14 4 29 19 1 0 1 0 0 43 84 1336 49 47 2 42 42 341 268 27
1850 3 1 2 -27296834 -95993336 -10512013 -64614743 42 7 2 11 8 0 0 0 0 0 42 83 1350 20 20 0 40 40 170 363 33
1852 3 1 2 -31693512 -97914924 -10819167 -59185990 43 9 2 13 10 0 0 0 0 0 43 85 1418 24 24 0 41 41 190 340 32
1854 3 1 2 -56913878 -109081291 919690 -33983605 46 14 4 22 15 0 0 0 0 0 46 87 1486 40 40 0 44 44 292 346 30
1856 3 1 2 -47069788 -105477557 1685518 -47041982 56 11 4 27 12 0 0 0 0 0 56 109 1714 42 42 0 54 54 323 535 43
1858 3 1 2 -28652196 -90212960 -25685258 -55324958 49 10 0 18 13 3 3 0 0 0 49 97 1547 34 28 6 47 47 254 404 37
1860 3 1 3 -46910653 -124029957 -42331489 16505359 51 21 6 35 27 0 0 0 0 0 51 99 1603 62 62 0 49 49 452 332 28
1862 3 1 3 -61682206 -114081815 -41827373 20615716 50 22 4 32 25 0 0 0 1 0 50 97 1601 59 58 1 48 48 434 286 26
1864 3 1 3 -56457490 -113184684 -56360259 28878650 49 29 7 40 33 1 0 1 0 0 49 95 1570 78 76 2 47 47 523 195 18
1866 3 1 3 -61575721 -116730596 -21357303 2005115 52 21 6 33 24 0 0 0 0 0 51 95 1494 60 60 0 50 50 434 300 28
1868 3 1 3 -46218017 -103200252 -31267260 -18839671 64 14 4 34 17 0 0 0 0 0 64 103 1312 52 52 0 62 62 406 383 48
1870 3 1 3 -59120501 -109336767 -53001314 24334094 59 25 7 38 29 1 0 1 0 0 58 107 1390 72 70 2 57 57 516 256 32
1872 3 1 3 -43895902 -121230410 -29908486 -1144882 46 19 4 30 19 0 0 0 0 0 46 89 1144 53 53 0 44 44 373 199 25
1874 3 1 3 -37812645 -102752350 -65255075 11570287 48 21 7 33 24 0 0 0 1 0 47 92 1104 62 61 1 45 46 419 181 24
1876 3 1 3 -26135812 -126872301 -67602253 25293413 48 22 6 33 24 0 0 0 0 0 48 95 1187 61 61 0 46 46 439 192 24
1878 3 1 3 -28801510 -108102838 -54893013 -5946197 49 19 2 34 21 1 1 0 0 0 49 93 1043 57 55 2 47 47 409 207 28
1880 3 1 3 -18900853 -126711927 -54119478 5379570 46 16 6 34 18 0 0 0 0 0 46 89 1100 56 56 0 44 44 399 251 28
1882 3 1 3 -51654056 -101746996 -35593318 -9913715 58 17 2 29 21 1 1 0 0 0 58 101 1289 50 48 2 56 56 399 310 39
1884 3 1 3 -46831859 -104690350 -65627422 18359618 61 24 5 43 30 3 3 0 0 0 61 105 1253 78 72 6 59 59 524 252 35
1886 3 1 3 -27478257 -115202622 -54103270 1408379 51 18 6 35 21 0 0 0 0 0 51 99 1149 59 59 0 49 49 429 230 31
1888 3 1 3 -37238140 -104270379 -64561130 10145323 52 21 7 36 27 2 1 1 0 0 52 89 1082 68 64 4 50 50 468 205 29
1890 3 1 3 -34064720 -112896970 -66019795 17467561 49 21 6 35 24 0 0 0 0 0 49 83 881 62 62 0 47 47 441 156 26
1892 3 1 3 -27033208 -121905970 -53220701 7569978 50 18 9 37 24 0 0 0 0 0 49 94 970 64 64 0 47 48 447 192 29
1894 3 1 3 -33589348 -124402220 -39957061 2037448 56 21 10 36 24 0 0 0 0 0 55 109 1193 67 67 0 54 54 458 229 32
1896 3 1 3 -56763451 -124499053 -40076058 23993670 51 27 9 38 31 1 0 1 0 0 51 95 1619 76 74 2 49 49 511 247 22
1898 3 1 3 -63127526 -116514224 -21711778 3761631 50 21 8 32 28 1 1 0 0 0 49 94 1529 63 61 2 47 48 444 286 26
1899 3 1 2 -35620440 -77540756 6505905 -84678956 5 3 2 3 3 0 0 0 0 0 5 0 0 8 8 0 3 3 45 0 0
1901 3 1 1 -40508606 5761033 -40211468 -126738333 0 0 0 0 0 0 0 0 0 0 0 0 0 0 0 0 0 0 0 0 0
1903 3 1 1 -40508606 5761033 -40211468 -126738333 0 0 0 0 0 0 0 0 0 0 0 0 0 0 0 0 0 0 0 0 0
1905 3 1 1 -40578212 5853848 -40314318 -126607891 1 0 0 0 0 0 0 0 0 0 1 0 0 0 0 0 0 0 0 0 0
1907 3 1 1 -40578212 5853848 -40314318 -126607891 1 0 0 0 0 0 0 0 0 0 1 0 0 0 0 0 0 0 0 0 0
1909 3 1 1 -40578212 5853848 -40314318 -126607891 1 0 0 0 0 0 0 0 0 0 1 0 0 0 0 0 0 0 0 0 0
1911 3 1 1 -40508606 5761033 -40211468 -126738333 0 0 0 0 0 0 0 0 0 0 0 0 0 0 0 0 0 0 0 0 0
1913 3 1 2 -45961462 -63041549 -38462909 -45029384 5 3 0 2 2 0 0 0 0 0 5 0 0 5 5 0 3 3 30 0 0
1915 3 1 1 -40578212 5853848 -40314318 -126607891 1 0 0 0 0 0 0 0 0 0 1 0 0 0 0 0 0 0 0 0 0
1917 3 1 1 -40647818 5946663 -40417168 -126477449 2 0 0 0 0 0 0 0 0 0 2 0 0 0 0 0 0 0 0 0 0
1919 3 1 2 -62241095 -70158902 -28651594 -31702703 10 8 2 6 6 0 0 0 0 0 10 0 0 16 16 0 8 8 90 0 0
1921 3 1 1 -40647818 5946663 -40417168 -126477449 2 0 0 0 0 0 0 0 0 0 2 0 0 0 0 0 0 0 0 0 0
1923 3 1 1 -40508606 5761033 -40211468 -126738333 0 0 0 0 0 0 0 0 0 0 0 0 0 0 0 0 0 0 0 0 0
1925 3 1 1 -40508606 5761033 -40211468 -126738333 0 0 0 0 0 0 0 0 0 0 0 0 0 0 0 0 0 0 0 0 0
1927 3 1 1 -40508606 5761033 -40211468 -126738333 0 0 0 0 0 0 0 0 0 0 0 0 0 0 0 0 0 0 0 0 0
1929 3 1 1 -40508606 5761033 -40211468 -126738333 0 0 0 0 0 0 0 0 0 0 0 0 0 0 0 0 0 0 0 0 0
1931 3 1 1 -40508606 5761033 -40211468 -126738333 0 0 0 0 0 0 0 0 0 0 0 0 0 0 0 0 0 0 0 0 0
1933 3 1 1 -40508606 5761033 -40211468 -126738333 0 0 0 0 0 0 0 0 0 0 0 0 0 0 0 0 0 0 0 0 0
1935 3 1 1 -40508606 5761033 -40211468 -126738333 0 0 0 0 0 0 0 0 0 0 0 0 0 0 0 0 0 0 0 0 0
1937 3 1 1 -40508606 5761033 -40211468 -126738333 0 0 0 0 0 0 0 0 0 0 0 0 0 0 0 0 0 0 0 0 0
1939 3 1 1 -40508606 5761033 -40211468 -126738333 0 0 0 0 0 0 0 0 0 0 0 0 0 0 0 0 0 0 0 0 0
1941 3 1 1 -40508606 5761033 -40211468 -126738333 0 0 0 0 0 0 0 0 0 0 0 0 0 0 0 0 0 0 0 0 0
1943 3 1 1 -40508606 5761033 -40211468 -126738333 0 0 0 0 0 0 0 0 0 0 0 0 0 0 0 0 0 0 0 0 0
1945 3 1 1 -40508606 5761033 -40211468 -126738333 0 0 0 0 0 0 0 0 0 0 0 0 0 0 0 0 0 0 0 0 0
1947 3 1 1 -40508606 5761033 -40211468 -126738333 0 0 0 0 0 0 0 0 0 0 0 0 0 0 0 0 0 0 0 0 0
1949 3 1 1 -40508606 5761033 -40211468 -126738333 0 0 0 0 0 0 0 0 0 0 0 0 0 0 0 0 0 0 0 0 0
1951 3 1 1 -40508606 5761033 -40211468 -126738333 0 0 0 0 0 0 0 0 0 0 0 0 0 0 0 0 0 0 0 0 0
1953 3 1 1 -40508606 5761033 -40211468 -126738333 0 0 0 0 0 0 0 0 0 0 0 0 0 0 0 0 0 0 0 0 0
1955 3 1 1 -40508606 5761033 -40211468 -126738333 0 0 0 0 0 0 0 0 0 0 0 0 0 0 0 0 0 0 0 0 0
1957 3 1 1 -40508606 5761033 -40211468 -126738333 0 0 0 0 0 0 0 0 0 0 0 0 0 0 0 0 0 0 0 0 0
1959 3 1 1 -40508606 5761033 -40211468 -126738333 0 0 0 0 0 0 0 0 0 0 0 0 0 0 0 0 0 0 0 0 0
1961 3 1 1 -40508606 5761033 -40211468 -126738333 0 0 0 0 0 0 0 0 0 0 0 0 0 0 0 0 0 0 0 0 0
1963 3 1 1 -40508606 5761033 -40211468 -126738333 0 0 0 0 0 0 0 0 0 0 0 0 0 0 0 0 0 0 0 0 0
1965 3 1 1 -40508606 5761033 -40211468 -126738333 0 0 0 0 0 0 0 0 0 0 0 0 0 0 0 0 0 0 0 0 0
1967 3 1 1 -40508606 5761033 -40211468 -126738333 0 0 0 0 0 0 0 0 0 0 0 0 0 0 0 0 0 0 0 0 0
1969 3 1 1 -36768112 28811140 -51990733 -136814819 2 0 0 0 0 1 1 0 0 0 2 0 0 2 0 2 0 0 0 0 0
1971 3 1 1 -40508606 5761033 -40211468 -126738333 0 0 0 0 0 0 0 0 0 0 0 0 0 0 0 0 0 0 0 0 0
1973 3 1 1 -40508606 5761033 -40211468 -126738333 0 0 0 0 0 0 0 0 0 0 0 0 0 0 0 0 0 0 0 0 0
1975 3 1 1 -40508606 5761033 -40211468 -126738333 0 0 0 0 0 0 0 0 0 0 0 0 0 0 0 0 0 0 0 0 0
1977 3 1 1 -40508606 5761033 -40211468 -126738333 0 0 0 0 0 0 0 0 0 0 0 0 0 0 0 0 0 0 0 0 0
1979 3 1 1 -40508606 5761033 -40211468 -126738333 0 0 0 0 0 0 0 0 0 0 0 0 0 0 0 0 0 0 0 0 0
1981 3 1 1 -40508606 5761033 -40211468 -126738333 0 0 0 0 0 0 0 0 0 0 0 0 0 0 0 0 0 0 0 0 0
1983 3 1 1 -40508606 5761033 -40211468 -126738333 0 0 0 0 0 0 0 0 0 0 0 0 0 0 0 0 0 0 0 0 0
1985 3 1 1 -40508606 5761033 -40211468 -126738333 0 0 0 0 0 0 0 0 0 0 0 0 0 0 0 0 0 0 0 0 0
1987 3 1 1 -40508606 5761033 -40211468 -126738333 0 0 0 0 0 0 0 0 0 0 0 0 0 0 0 0 0 0 0 0 0
1989 3 1 1 -40508606 5761033 -40211468 -126738333 0 0 0 0 0 0 0 0 0 0 0 0 0 0 0 0 0 0 0 0 0
1991 3 1 1 -40508606 5761033 -40211468 -126738333 0 0 0 0 0 0 0 0 0 0 0 0 0 0 0 0 0 0 0 0 0
1993 3 1 1 -40508606 5761033 -40211468 -126738333 0 0 0 0 0 0 0 0 0 0 0 0 0 0 0 0 0 0 0 0 0
1995 3 1 1 -40508606 5761033 -40211468 -126738333 0 0 0 0 0 0 0 0 0 0 0 0 0 0 0 0 0 0 0 0 0
1997 3 1 1 -40508606 5761033 -40211468 -126738333 0 0 0 0 0 0 0 0 0 0 0 0 0 0 0 0 0 0 0 0 0
1999 3 1 1 -40508606 5761033 -40211468 -126738333 0 0 0 0 0 0 0 0 0 0 0 0 0 0 0 0 0 0 0 0 0
2001 3 1 1 -40508606 5761033 -40211468 -126738333 0 0 0 0 0 0 0 0 0 0 0 0 0 0 0 0 0 0 0 0 0
2003 3 1 1 -40578212 5853848 -40314318 -126607891 1 0 0 0 0 0 0 0 0 0 1 0 0 0 0 0 0 0 0 0 0
2005 3 1 1 -40508606 5761033 -40211468 -126738333 0 0 0 0 0 0 0 0 0 0 0 0 0 0 0 0 0 0 0 0 0
2007 3 1 1 -40508606 5761033 -40211468 -126738333 0 0 0 0 0 0 0 0 0 0 0 0 0 0 0 0 0 0 0 0 0
2009 3 1 1 -40508606 5761033 -40211468 -126738333 0 0 0 0 0 0 0 0 0 0 0 0 0 0 0 0 0 0 0 0 0
2011 3 1 1 -40647818 5946663 -40417168 -126477449 2 0 0 0 0 0 0 0 0 0 2 0 0 0 0 0 0 0 0 0 0
2013 3 1 1 -40508606 5761033 -40211468 -126738333 0 0 0 0 0 0 0 0 0 0 0 0 0 0 0 0 0 0 0 0 0
2015 3 1 1 -40508606 5761033 -40211468 -126738333 0 0 0 0 0 0 0 0 0 0 0 0 0 0 0 0 0 0 0 0 0
2017 3 1 1 -40508606 5761033 -40211468 -126738333 0 0 0 0 0 0 0 0 0 0 0 0 0 0 0 0 0 0 0 0 0
2019 3 1 1 -40508606 5761033 -40211468 -126738333 0 0 0 0 0 0 0 0 0 0 0 0 0 0 0 0 0 0 0 0 0
2021 3 1 1 -40508606 5761033 -40211468 -126738333 0 0 0 0 0 0 0 0 0 0 0 0 0 0 0 0 0 0 0 0 0
2023 3 1 1 -40508606 5761033 -40211468 -126738333 0 0 0 0 0 0 0 0 0 0 0 0 0 0 0 0 0 0 0 0 0
2025 3 1 1 -40508606 5761033 -40211468 -126738333 0 0 0 0 0 0 0 0 0 0 0 0 0 0 0 0 0 0 0 0 0
2027 3 1 1 -40508606 5761033 -40211468 -126738333 0 0 0 0 0 0 0 0 0 0 0 0 0 0 0 0 0 0 0 0 0
2029 3 1 1 -40508606 5761033 -40211468 -126738333 0 0 0 0 0 0 0 0 0 0 0 0 0 0 0 0 0 0 0 0 0
2031 3 1 1 -40508606 5761033 -40211468 -126738333 0 0 0 0 0 0 0 0 0 0 0 0 0 0 0 0 0 0 0 0 0
2033 3 1 1 -40508606 5761033 -40211468 -126738333 0 0 0 0 0 0 0 0 0 0 0 0 0 0 0 0 0 0 0 0 0
2035 3 1 1 -40508606 5761033 -40211468 -126738333 0 0 0 0 0 0 0 0 0 0 0 0 0 0 0 0 0 0 0 0 0
2037 3 1 1 -40508606 5761033 -40211468 -126738333 0 0 0 0 0 0 0 0 0 0 0 0 0 0 0 0 0 0 0 0 0
2039 3 1 1 -40508606 5761033 -40211468 -126738333 0 0 0 0 0 0 0 0 0 0 0 0 0 0 0 0 0 0 0 0 0
2040 3 1 3 -110708407 -28288446 -44629169 -18512381 63 15 2 37 21 18 18 0 0 0 63 0 0 90 54 36 61 61 426 76 46
2042 3 1 3 -96434720 -45142779 -38002549 -20492062 57 14 3 34 18 9 9 0 0 0 57 0 6 69 51 18 55 55 403 164 41
2044 3 1 2 -104178620 -53917184 -5063974 -36958826 62 17 6 37 20 17 17 0 0 0 62 0 0 94 60 34 60 60 438 228 43
2046 3 1 3 -91962880 -53091120 -31485598 -23480538 53 17 2 32 19 3 3 0 0 0 53 0 6 57 51 6 51 51 383 156 34
2048 3 1 2 -87498470 -64216611 9181729 -54584652 48 15 8 27 15 4 4 0 0 0 48 0 18 58 50 8 46 46 334 187 31
2050 3 1 1 -94264154 -11045408 -45188552 -48975269 49 7 2 27 13 1 1 0 0 0 48 0 0 38 36 2 46 47 304 120 39
2052 3 1 1 -96760848 -29465526 -41424686 -30403246 48 12 4 30 16 3 3 0 0 0 48 0 0 52 46 6 46 46 353 117 34
2054 3 1 1 -88117238 -22865555 -50977270 -36289083 48 9 1 29 14 0 0 0 0 0 48 0 0 39 39 0 46 46 328 76 36
2056 3 1 2 -77047549 -73357097 -19604269 -26010538 46 16 5 37 19 2 2 0 0 0 46 0 0 62 58 4 44 44 400 187 28
2058 3 1 2 -102559704 -72411701 -6046190 -27665030 69 15 2 31 19 53 53 0 1 0 69 0 6 155 48 107 67 67 415 414 52
2060 3 1 2 -84798824 -90923205 6850920 -29750568 47 16 6 25 19 0 0 0 0 0 47 0 11 47 47 0 45 45 356 190 29
2062 3 1 3 -101730288 -66894969 -27408442 -4108103 57 20 5 39 25 23 23 0 0 0 57 0 20 110 64 46 55 55 486 204 35
2064 3 1 3 -90309832 -31649627 -50147367 -27635873 47 10 0 29 16 1 1 0 0 0 47 0 0 41 39 2 45 45 334 0 35
2066 3 1 3 -113086202 -34332987 -45476665 -6236075 55 19 8 35 25 7 6 1 0 0 55 0 0 76 62 14 53 53 449 111 34
2068 3 1 3 -89892748 -43367650 -48596605 -17991391 52 11 0 32 14 0 0 0 0 0 52 0 0 43 43 0 50 50 340 54 39
2070 3 1 3 -103461457 -63884427 -43260160 12586792 48 20 8 37 25 0 0 0 0 0 48 0 0 65 65 0 46 46 460 23 26
2072 3 1 2 -104563782 -48996210 -10278556 -38817272 62 14 4 36 19 29 29 0 0 0 62 0 0 112 54 58 60 60 409 246 46
2074 3 1 1 -94233968 -7027947 -38202058 -60769226 49 7 3 27 15 0 0 0 0 0 49 0 0 37 37 0 47 47 314 116 40
2076 3 1 1 -78683573 -22916984 -25424348 -74575471 49 6 0 23 12 1 1 0 0 0 48 0 0 31 29 2 47 47 278 226 40
2078 3 1 2 -75357930 -44479880 -36431132 -40943928 46 10 3 28 18 2 2 0 0 0 46 0 0 45 41 4 44 44 334 145 34
2080 3 1 3 -99573417 -47150223 -41006057 -11848629 47 13 2 30 18 0 0 0 0 0 47 0 0 45 45 0 45 45 356 54 32
2082 3 1 3 -105038779 -43122379 -43156653 -6599450 47 15 5 30 19 4 4 0 0 0 47 0 0 58 50 8 45 45 372 50 30
2084 3 1 1 -98562541 -3729647 -65081510 -31323727 50 9 1 30 18 2 2 0 0 0 50 0 0 44 40 4 48 48 347 59 39
2086 3 1 1 -92253547 -20546186 -34642194 -49278250 52 10 5 34 17 3 2 2 0 0 52 0 0 56 49 7 50 50 364 173 40
2088 3 1 3 -89507056 -35043921 -41813826 -32918131 51 11 3 32 14 0 0 0 0 0 51 0 0 46 46 0 49 49 341 129 38
2090 3 1 2 -76047054 -55173325 -23196931 -44459871 51 11 3 31 13 0 0 0 0 0 51 0 4 45 45 0 49 49 340 186 38
2092 3 1 1 -81366197 -19272822 -56751570 -40615283 51 11 1 33 14 1 1 0 0 0 51 0 2 47 45 2 49 49 344 143 38
2094 3 1 1 -89454444 -16483278 -51162532 -43326002 53 8 0 26 9 0 0 0 0 0 53 0 0 34 34 0 51 51 291 63 43
2096 3 1 1 -95875931 2519130 -41513022 -64758103 51 6 2 29 12 1 1 0 0 0 50 0 11 39 37 2 48 49 316 130 42
2098 3 1 1 -81391289 14406243 -62067437 -72196027 51 3 0 31 9 1 1 0 0 0 51 0 0 36 34 2 49 49 283 81 46
2100 3 1 1 -80579044 -6278805 -30624099 -82316151 52 6 3 23 12 1 1 0 0 0 52 0 9 34 32 2 50 50 288 204 43
2102 3 1 2 -89133905 -37726196 -16014150 -57377041 53 12 2 29 14 3 3 0 0 0 53 0 36 49 43 6 51 51 336 202 39
2104 3 1 1 -100805847 -16060961 -38026071 -45644605 52 9 2 27 11 2 2 0 0 0 52 0 0 42 38 4 50 50 308 139 41
2106 3 1 2 -85337511 -40163455 -10056226 -64122723 51 11 4 24 16 1 1 0 0 0 50 0 0 41 39 2 48 49 316 213 37
2108 3 1 2 -85672040 -68848805 -9143499 -31456577 41 25 14 34 28 11 10 2 0 0 41 0 8 96 73 23 39 39 460 69 14
2110 3 1 2 -99006406 -72767541 -5888784 -21290796 51 19 8 35 22 0 0 0 0 0 51 0 28 62 62 0 49 49 428 173 30
2112 3 1 2 -90884419 -39674525 -15799095 -52833208 52 12 5 33 18 3 3 0 0 0 51 0 8 56 50 6 50 50 388 222 38
2114 3 1 2 -92868577 -68056955 -15707198 -21184029 51 16 5 34 21 0 0 0 0 0 50 0 7 55 55 0 48 49 395 172 32
2116 3 1 1 -84609084 -20319828 -44032816 -51778753 53 8 0 22 9 0 0 0 0 0 53 0 0 30 30 0 51 51 284 132 43
2118 3 1 2 -122778473 -26456744 -9340734 -42726771 64 14 6 37 22 29 29 0 1 0 63 0 19 116 57 59 61 62 447 258 46
2120 3 1 1 -89440478 7723546 -57619410 -62284956 55 4 1 26 9 0 0 0 0 0 55 0 0 31 31 0 53 53 278 0 49
2122 3 1 1 -87138873 -15494668 -46888832 -48698174 55 9 2 33 15 2 2 0 0 0 55 0 7 48 44 4 53 53 343 192 44
2124 3 1 1 -85647065 -19931927 -49340874 -44796955 55 8 0 29 10 1 1 0 0 0 54 0 10 39 37 2 52 53 320 169 44
2126 3 1 1 -82792964 -35407653 -43001009 -38936497 50 11 0 25 15 0 0 0 0 0 50 0 0 36 36 0 48 48 312 147 37
2128 3 1 1 -94789926 -15680306 -40060588 -48922774 49 9 2 26 13 1 1 0 0 0 49 0 0 39 37 2 47 47 294 96 38
2130 3 1 2 -78672439 -54309612 -18281065 -47431569 48 12 0 32 15 1 1 0 0 0 48 0 0 46 44 2 46 46 359 183 34
2132 3 1 2 -98598099 -61534411 -155795 -39461652 50 16 6 28 16 0 0 0 0 0 50 0 0 50 50 0 48 48 344 174 32
2134 3 1 1 -106884042 15767850 -10452561 -97724733 56 9 0 28 16 14 14 0 3 0 56 0 8 68 37 31 54 54 314 250 45
2136 3 1 2 -85487682 -36977999 -13214559 -63970284 50 10 3 27 14 1 1 0 0 0 50 0 0 42 40 2 48 48 313 208 38
2138 3 1 1 -77829646 -39321396 -40484150 -40954174 49 9 0 25 16 1 1 0 0 0 49 0 0 36 34 2 47 47 306 162 38
2140 3 1 2 -87448139 -38972158 -13426038 -58524422 50 10 4 30 13 2 2 0 0 0 50 0 0 48 44 4 48 48 335 225 39
2142 3 1 3 -104706246 -31785230 -45585970 -16837156 52 14 4 31 17 2 2 0 0 0 52 0 0 53 49 4 50 50 362 33 36
2144 3 1 1 -88195140 2202902 -45989440 -69175400 54 7 0 26 11 1 1 0 0 0 54 0 0 35 33 2 52 52 302 103 45
2146 3 1 3 -92468640 -38216567 -53700894 -15963909 50 11 0 34 19 0 0 0 0 0 50 0 0 45 45 0 48 48 378 28 37
2148 3 1 3 -97043150 -49113677 -44925232 -6828925 49 17 6 33 22 0 0 0 0 0 49 0 0 56 56 0 47 47 414 105 30
2150 3 1 1 -91108929 -26076037 -34422325 -48365503 49 10 3 26 13 1 1 0 0 0 49 0 0 41 39 2 47 47 300 88 37
2152 3 1 2 -80991451 -65859136 -14231463 -37954767 48 12 2 25 16 1 1 0 0 0 47 0 0 41 39 2 45 46 328 155 33
2154 3 1 1 -78800444 -15390691 -25261636 -80996594 48 6 1 21 12 1 1 0 0 0 48 0 0 30 28 2 46 46 248 190 40
