2 0 0 1 0 54602353 -95888255 -52080432 -101075417 53 0 0 13 2 0 0 0 0 0 53 105 1303 13 13 0 51 51 153 507 51
2 0 1 1 3 -32955136 -103877295 -35057945 -25714515 76 19 5 32 24 9 9 0 0 0 75 127 1554 74 56 18 73 74 458 536 54
2 0 2 1 0 4601081 -34792746 -77994057 -88185835 74 3 0 7 3 5 5 0 2 0 74 144 1763 22 10 12 72 72 140 679 69
2 0 3 1 0 -13382057 -86808780 -33056531 -62634087 69 14 5 24 16 5 5 0 0 0 69 127 1581 53 43 10 67 67 350 516 53
2 0 4 1 0 38797359 -112447513 -33270460 -88795679 63 3 1 12 4 0 0 0 0 0 63 123 1511 16 16 0 61 61 181 584 58
2 0 5 1 0 58358739 -98834194 -56808120 -97123643 64 0 0 7 0 0 0 0 0 0 64 127 1570 7 7 0 62 62 109 656 62
2 0 6 1 0 19575199 -84729084 -42201260 -88153495 70 8 2 13 9 2 2 0 0 0 70 129 1581 27 23 4 68 68 221 592 60
2 0 7 1 0 -47121604 -48230033 -54908613 -48313716 93 18 4 26 23 19 19 0 2 0 93 171 1944 88 48 40 91 91 394 695 73
2 0 8 1 0 -21068652 -90920739 -25562861 -58758101 74 13 6 26 15 4 4 0 1 0 74 139 1660 54 45 9 72 72 353 557 59
2 0 9 1 0 45511677 -90518952 -51224445 -98293938 60 3 0 13 3 0 0 0 0 0 60 117 1430 16 16 0 58 58 189 532 55
2 0 10 1 0 55225554 -98300265 -52157311 -98778877 58 0 0 11 0 0 0 0 0 0 58 115 1367 11 11 0 56 56 149 522 56
2 0 11 1 2 -50919039 -70306561 -27832352 -49798992 87 22 7 35 26 23 23 0 3 0 87 129 1588 113 64 49 85 85 503 613 63
2 0 12 1 0 57109135 -83625132 -66725535 -100488875 58 0 0 12 0 0 0 0 0 0 58 115 1406 12 12 0 56 56 139 557 56
2 0 13 1 0 -7136206 -85188538 -28168546 -74091853 66 11 4 23 12 6 6 0 0 0 66 119 1439 50 38 12 64 64 300 583 53
2 0 14 1 0 21174788 -86538578 -39978983 -90171352 65 6 0 8 6 2 2 0 0 0 65 123 1396 18 14 4 63 63 166 522 57
2 0 15 1 3 -39859116 -120684737 -32652436 -2775025 80 28 13 39 35 12 12 0 0 0 80 129 1612 104 80 24 78 78 585 538 51
2 0 16 1 0 22109754 -91400339 -37527166 -87813913 67 9 4 21 10 6 6 0 0 0 66 124 1482 46 34 12 64 65 268 590 55
2 0 17 1 0 -4806327 -85004387 -35267590 -70564019 65 11 2 19 11 5 5 0 0 0 65 120 1209 42 32 10 63 63 269 468 52
2 0 18 1 0 26302213 -69539397 -64836770 -86403096 72 10 3 17 11 6 6 0 0 0 72 127 1416 42 30 12 70 70 273 570 60
2 0 19 1 0 34210470 -75890258 -54688348 -98429637 64 2 1 9 2 3 3 0 0 0 64 123 1383 18 12 6 62 62 140 586 60
2 0 20 1 0 -21519311 -99843082 -24034824 -51870475 70 18 3 22 18 11 11 0 0 0 70 123 1274 65 43 22 68 68 371 449 50
2 0 21 1 0 22712909 -86354885 -41480789 -90110127 65 6 0 9 6 5 5 0 0 0 65 121 1250 25 15 10 63 63 181 496 57
2 0 22 1 0 39807820 -79319156 -57569086 -97380720 63 3 0 8 3 1 1 0 0 0 63 123 1216 13 11 2 61 61 137 507 58
2 0 23 1 2 -53089956 -82769228 -22282959 -41522732 86 25 11 31 27 17 17 0 2 0 86 145 1725 104 67 37 84 84 500 564 59
2 0 24 1 0 40137520 -116775944 -28400872 -90259201 66 1 0 7 1 0 0 0 0 0 66 131 1724 8 8 0 64 64 145 693 63
2 0 25 1 0 26650107 -79015314 -43432035 -98400254 61 2 0 14 3 2 2 0 0 0 61 119 1545 20 16 4 59 59 191 568 57
2 0 26 1 0 37579117 -102881929 -30049909 -98803281 56 1 0 14 1 0 0 0 0 0 56 111 1404 15 15 0 54 54 170 530 53
2 0 27 1 0 45352992 -105727685 -32204701 -101131266 57 0 0 8 0 0 0 0 0 0 57 113 1454 8 8 0 55 55 125 564 55
2 0 28 1 0 6260628 -59366974 -32001232 -108973107 60 4 1 13 4 5 5 0 0 0 60 115 1493 28 18 10 58 58 171 557 54
2 0 29 1 0 -3308102 -88274658 -20309637 -84239540 62 9 1 17 9 4 4 0 0 0 62 115 1468 35 27 8 60 60 235 494 51
4 0 0 1 0 20825599 -75910078 -33243779 -109156846 68 4 0 35 9 4 2 3 0 0 68 133 3772 48 39 9 66 66 357 1612 62
4 0 1 1 0 55271817 -105278850 -26607643 -121036063 66 0 0 11 0 0 0 0 0 0 65 130 3691 11 11 0 63 64 182 1690 63
4 0 2 1 0 35840250 -89386115 -22377720 -122178904 70 3 1 13 3 1 1 0 0 0 70 136 3843 19 17 2 68 68 224 1711 65
4 0 3 1 0 54450987 -104108294 -31377388 -116799656 70 0 0 10 0 0 0 0 0 0 70 139 3897 10 10 0 68 68 193 1757 68
4 0 4 1 0 33529283 -89785053 -30498809 -112975738 71 3 0 20 4 1 1 0 0 0 71 139 3921 25 23 2 69 69 233 1765 66
4 0 5 1 0 36474381 -96334318 -36108176 -102046978 71 3 0 31 3 0 0 0 0 0 71 139 3916 34 34 0 69 69 307 1736 67
4 0 6 1 0 52919597 -105190802 -28166818 -117671157 67 0 0 10 0 0 0 0 0 0 67 133 3752 10 10 0 65 65 167 1689 65
4 0 7 1 0 46784732 -53431617 -74177821 -119024411 88 1 1 7 2 1 1 1 0 0 87 174 4796 12 9 3 85 86 143 2183 84
4 0 8 1 0 47723325 -104777056 -41697430 -102463299 87 0 0 7 0 0 0 0 0 0 87 173 4807 7 7 0 85 85 157 2161 85
4 0 9 1 0 36001932 -86107944 -43024854 -105823563 79 3 1 19 4 0 0 0 0 0 79 157 4415 23 23 0 77 77 224 1886 74
4 0 10 1 0 46958115 -111096725 -31018867 -105656556 78 0 0 11 0 0 0 0 0 0 78 155 4352 11 11 0 76 76 169 1973 76
4 0 11 1 0 36765713 -95762778 -36717508 -103982815 73 2 1 23 3 0 0 0 0 0 73 145 4052 26 26 0 71 71 258 1790 69
4 0 12 1 0 29071218 -83136839 -39415170 -106284795 75 3 0 16 4 1 0 1 0 0 75 147 4035 21 19 2 73 73 205 1741 70
4 0 13 1 0 48605629 -98723182 -36367718 -112211734 72 0 0 6 0 0 0 0 0 0 72 143 3947 6 6 0 70 70 145 1739 70
4 0 14 1 0 27381188 -80099240 -30609043 -116546984 73 5 1 10 5 1 1 0 0 0 73 145 4010 18 16 2 71 71 187 1695 66
4 0 15 1 0 46802092 -102086263 -34033223 -110595075 72 0 0 6 0 0 0 0 0 0 72 143 3950 6 6 0 70 70 125 1750 70
4 0 16 1 0 41659917 -90587406 -41574314 -108368862 75 1 0 14 2 0 0 0 0 0 75 149 4126 15 15 0 73 73 190 1773 72
4 0 17 1 0 39977246 -95691009 -39524533 -104945229 75 0 0 15 3 0 0 0 0 0 75 149 4104 15 15 0 73 73 186 1870 73
4 0 18 1 0 51423186 -85213871 -49893003 -114520794 75 0 0 7 0 0 0 0 0 0 75 149 4110 7 7 0 73 73 138 1823 73
4 0 19 1 0 49806484 -103112944 -35897414 -109725144 74 0 0 10 0 0 0 0 0 0 74 147 4068 10 10 0 72 72 172 1800 72
4 0 20 1 0 50573120 -104882051 -32082185 -112223934 74 0 0 5 0 0 0 0 0 0 74 147 4045 5 5 0 72 72 154 1827 72
4 0 21 1 0 35970779 -100659942 -29820087 -106367784 82 0 0 9 0 0 0 0 0 0 82 163 4371 9 9 0 80 80 158 1991 80
4 0 22 1 0 48310838 -99344698 -37799470 -110561720 74 0 0 10 0 0 0 0 0 0 74 147 4038 10 10 0 72 72 151 1845 72
4 0 23 1 0 45528416 -97603658 -35956746 -112459150 74 0 0 6 0 1 1 0 0 0 74 147 4096 8 6 2 72 72 129 1796 72
4 0 24 1 0 46846073 -90859125 -44390396 -110359176 77 1 0 11 1 0 0 0 0 0 76 153 4253 12 12 0 75 75 168 1823 73
4 0 25 1 0 41672852 -107860496 -28548694 -105454215 76 0 0 13 0 0 0 0 0 0 76 151 4164 13 13 0 74 74 189 1855 74
4 0 26 1 0 44338105 -102636467 -30905239 -110263713 75 0 0 11 0 0 0 0 0 0 75 149 4162 11 11 0 73 73 191 1874 73
4 0 27 1 0 43081939 -96108892 -43663255 -103898778 77 0 0 17 2 0 0 0 0 0 76 153 4251 17 17 0 75 75 203 1937 75
4 0 28 1 0 44561489 -101019153 -33236549 -110140286 74 0 0 13 0 0 0 0 0 0 74 147 4116 13 13 0 72 72 177 1906 72
4 0 29 1 0 48178754 -98193683 -39446653 -110326026 74 0 0 8 0 0 0 0 0 0 74 147 4087 8 8 0 72 72 130 1822 72
6 0 0 1 0 53218713 -122483980 -50156483 -78186500 85 0 0 1 0 0 0 0 0 0 85 169 2835 1 1 0 83 83 131 1242 83
6 0 1 1 0 37920304 -104101776 -49035740 -82408375 87 2 0 9 2 3 3 0 0 0 87 171 2932 17 11 6 85 85 205 1245 83
6 0 2 1 2 -46906430 -105662321 34893771 -81243250 95 9 2 21 10 20 20 0 13 1 95 167 2792 85 32 53 93 93 348 1272 84
6 0 3 1 2 -58241870 -68828175 4441321 -76289379 100 12 1 16 14 22 22 1 14 1 100 209 3205 90 29 61 98 98 314 1350 86
6 0 4 1 0 49210455 -93359988 -72150193 -81075033 85 0 0 2 0 0 0 0 0 0 85 169 2846 2 2 0 83 83 107 1245 83
6 0 5 1 2 -59344967 -59777775 -4718768 -74731415 94 10 2 22 12 14 12 2 8 1 94 179 2974 70 34 36 92 92 304 1220 82
6 0 6 1 0 52374984 -111527917 -58734337 -79406643 85 0 0 1 0 0 0 0 0 0 85 169 2837 1 1 0 83 83 121 1240 83
6 0 7 1 0 40787660 -100293683 -51991116 -85732890 90 0 0 3 0 0 0 0 1 0 90 179 2997 4 3 1 88 88 123 1373 88
6 0 8 1 0 57022300 -131702150 -39074551 -83170996 83 0 0 2 0 0 0 0 0 0 83 165 2851 2 2 0 81 81 175 1280 81
6 0 9 1 0 55023894 -119956540 -48955288 -83171364 84 0 0 4 0 0 0 0 0 0 84 167 2906 4 4 0 82 82 142 1269 82
6 0 10 1 0 58069361 -115506410 -52396396 -86186273 85 0 0 3 0 0 0 0 0 0 85 169 2911 3 3 0 83 83 143 1284 83
6 0 11 1 0 56641041 -109352262 -58312460 -85086819 83 0 0 2 0 0 0 0 0 0 83 165 2843 2 2 0 81 81 138 1213 81
6 0 12 1 0 54300082 -137851561 -33033060 -81122093 82 0 0 5 0 0 0 0 0 0 82 163 2813 5 5 0 80 80 161 1260 80
6 0 13 1 0 52004992 -115986119 -56474320 -77236065 87 0 0 1 0 0 0 0 0 0 87 173 2993 1 1 0 85 85 118 1278 85
6 0 14 1 0 48254384 -61348391 -99669143 -83713095 92 0 0 0 0 0 0 0 0 0 92 183 3174 0 0 0 90 90 73 1417 90
6 0 15 1 0 47263173 -96836031 -71014427 -77460078 88 0 0 0 0 0 0 0 0 0 88 175 3071 0 0 0 86 86 103 1290 86
6 0 16 1 0 55315287 -113800951 -55490308 -82832790 86 0 0 5 0 0 0 0 0 0 86 171 2993 5 5 0 84 84 138 1310 84
6 0 17 1 0 46852185 -101318821 -68788477 -75148411 90 0 0 2 0 0 0 0 0 0 90 179 3059 2 2 0 88 88 118 1336 88
6 0 18 1 0 54213232 -104961385 -62744698 -83226802 90 0 0 3 0 0 0 0 0 0 90 179 3123 3 3 0 88 88 126 1402 88
6 0 19 1 0 53060955 -111764160 -57878229 -80944833 90 0 0 8 0 0 0 0 0 0 89 179 3114 8 8 0 88 88 145 1387 87
6 0 20 1 0 52869830 -119851609 -49767670 -80644449 85 0 0 4 0 0 0 0 0 0 85 169 2940 4 4 0 83 83 131 1255 83
6 0 21 1 0 49515690 -98769981 -69208944 -79526914 90 0 0 5 0 0 0 0 0 0 90 179 3082 5 5 0 88 88 122 1420 88
6 0 22 1 0 47424088 -104103330 -63843527 -77894734 85 0 0 1 0 0 0 0 0 0 84 169 2883 1 1 0 83 83 111 1245 83
6 0 23 1 0 46596859 -102036402 -67086613 -76121716 92 0 0 3 0 0 0 0 0 0 91 183 3128 3 3 0 90 90 111 1420 90
6 0 24 1 0 52694952 -111248325 -59424411 -79439181 89 0 0 3 1 0 0 0 0 0 89 177 3072 3 3 0 87 87 137 1370 87
6 0 25 1 0 41239116 -120825029 -37921226 -80080354 90 0 0 6 1 0 0 0 0 0 90 179 3095 6 6 0 88 88 179 1369 88
6 0 26 1 0 55915737 -102601817 -61362239 -87479315 81 0 0 16 0 0 0 0 0 0 81 161 2746 16 16 0 79 79 203 1252 79
6 0 27 1 0 53915630 -109915389 -57950382 -82924719 83 0 0 2 0 0 0 0 0 0 83 165 2806 2 2 0 81 81 121 1219 81
6 0 28 1 0 55638054 -119944242 -49018132 -83359350 84 0 0 10 0 0 0 0 0 0 84 167 2810 10 10 0 82 82 182 1284 82
6 0 29 1 0 39908853 -50406486 -103058946 -83254590 89 0 0 0 0 0 0 0 0 0 89 177 2945 0 0 0 87 87 56 1302 87
8 0 0 1 0 33956919 -53065875 -88131068 -88204436 81 0 0 0 0 0 0 0 0 0 81 161 2865 0 0 0 79 79 61 1022 79
8 0 1 1 0 30089554 -77674142 -71106142 -78705192 82 0 0 0 0 0 0 0 0 0 82 163 2811 0 0 0 80 80 74 1005 80
8 0 2 1 0 18259475 -48069573 -85011698 -83015875 83 0 0 0 0 2 2 0 0 0 83 165 2889 4 0 4 81 81 55 1035 81
8 0 3 1 0 33594259 -38493665 -100854160 -88651250 84 0 0 0 0 0 0 0 0 0 84 167 2889 0 0 0 82 82 50 1020 82
8 0 4 1 0 23733927 -60166732 -81533017 -79710212 83 0 0 0 0 0 0 0 0 0 83 165 2904 0 0 0 81 81 65 1052 81
8 0 5 1 0 22735646 -31887353 -103040149 -83580927 84 0 0 0 0 0 0 0 0 0 84 167 2843 0 0 0 82 82 37 973 82
8 0 6 1 0 19840322 -31826150 -92622255 -92645408 84 0 0 0 0 1 1 0 0 0 84 167 2899 2 0 2 82 82 34 1062 82
8 0 7 1 0 22088891 -43623899 -89840708 -85371516 84 0 0 0 0 1 1 0 0 0 84 167 2780 2 0 2 82 82 53 980 82
8 0 8 1 0 23266227 -30652034 -104579642 -83578654 85 0 0 0 0 0 0 0 0 0 85 169 2852 0 0 0 83 83 41 987 83
8 0 9 1 0 21269001 -30666332 -97942160 -89112654 84 0 0 0 0 0 0 0 0 0 84 167 2876 0 0 0 82 82 33 1041 82
8 0 10 1 0 24622031 -31234207 -98249472 -91330411 83 0 0 0 0 1 1 0 0 0 83 165 2902 2 0 2 81 81 41 1048 81
8 0 11 1 0 31711296 -54873578 -84771116 -88300778 84 0 0 1 0 1 1 0 0 0 84 167 2835 3 1 2 82 82 70 1064 82
8 0 12 1 0 24465713 -34753018 -96213420 -89715726 84 0 0 0 0 1 1 0 0 0 84 167 2904 2 0 2 82 82 48 1042 82
8 0 13 1 0 24327665 -40272204 -96211956 -84260655 83 0 0 0 0 0 0 0 0 0 83 165 2849 0 0 0 81 81 46 1039 81
8 0 14 1 0 23513070 -28895899 -106503450 -83530980 86 0 0 0 0 0 0 0 0 0 86 171 2864 0 0 0 84 84 42 1008 84
8 0 15 1 0 18482749 -34371366 -95984920 -85068709 85 0 0 0 0 0 0 0 0 0 85 169 2874 0 0 0 83 83 33 1005 83
8 0 16 1 0 18360002 -34305739 -96411374 -84770397 85 0 0 0 0 2 2 0 0 0 85 169 2919 4 0 4 83 83 44 1070 83
8 0 17 1 0 22455009 -36755101 -99949087 -81770460 85 0 0 0 0 0 0 0 0 0 84 169 2844 0 0 0 83 83 44 976 82
8 0 18 1 0 22602178 -62256153 -79978402 -78461005 83 0 0 1 0 0 0 0 0 0 83 165 2953 1 1 0 81 81 65 1053 81
8 0 19 1 0 26277291 -25146428 -107900011 -88444073 84 0 0 0 0 0 0 0 0 0 84 167 2837 0 0 0 82 82 35 1064 82
8 0 20 1 0 23269480 -39339328 -99289162 -80845488 87 0 0 0 0 0 0 0 0 0 87 173 2982 0 0 0 85 85 52 1048 85
8 0 21 1 0 12924850 5243976 -126135803 -87370228 96 0 0 0 0 2 2 0 0 0 95 191 3201 4 0 4 94 94 24 1113 93
8 0 22 1 0 23310763 -30385791 -105315909 -83182948 86 0 0 0 0 0 0 0 0 0 86 171 2943 0 0 0 84 84 43 1008 84
8 0 23 1 0 20318046 -46030468 -93411410 -78034637 85 0 0 0 0 0 0 0 0 0 85 169 2896 0 0 0 83 83 45 996 83
8 0 24 1 0 20956188 -26322246 -101490309 -89288533 84 0 0 0 0 2 2 0 0 0 84 167 2884 4 0 4 82 82 42 1065 82
8 0 25 1 0 25713926 -29948429 -99093430 -92446497 83 0 0 0 0 1 1 0 0 0 83 165 2868 2 0 2 81 81 44 1041 81
8 0 26 1 0 34695141 -47331236 -93109949 -89680331 81 0 0 2 1 0 0 0 0 0 81 161 2829 2 2 0 79 79 64 1080 79
8 0 27 1 0 24555760 -53720494 -85105954 -83340552 81 0 0 0 0 0 0 0 0 0 81 161 2880 0 0 0 79 79 48 1076 79
8 0 28 1 0 26715378 -21700032 -109759278 -90296688 83 0 0 0 0 0 0 0 0 0 82 165 2864 0 0 0 81 81 31 1050 81
8 0 29 1 0 23987165 -42680380 -94489813 -83473124 83 0 0 0 0 0 0 0 0 0 83 165 2885 0 0 0 81 81 45 1040 81
10 0 0 1 0 45165966 -90103915 -73669003 -77817000 92 0 0 12 0 0 0 0 0 0 92 182 3030 12 12 0 90 90 163 1295 90
10 0 1 1 0 21591259 -86122337 -67178413 -66647586 91 3 0 24 7 11 10 1 0 0 91 175 2958 49 27 22 89 89 285 1218 86
10 0 2 1 0 28798901 -101789891 -49737743 -74109591 85 2 0 22 4 0 0 0 0 0 84 169 2842 24 24 0 83 83 273 1131 81
10 0 3 1 2 -36697983 -79930718 -32458041 -49946765 94 19 3 43 23 19 19 0 3 0 94 177 3050 106 65 41 92 92 522 1038 73
10 0 4 1 2 -32659632 -92805651 -2720555 -72058343 90 7 2 23 12 3 3 0 5 1 90 177 2951 43 32 11 88 88 322 1203 81
10 0 5 1 0 20636570 -90296379 -48112227 -80033373 88 5 3 21 6 2 2 0 0 0 87 171 2805 33 29 4 86 86 262 1097 80
10 0 6 1 0 37187780 -109353373 -49438837 -75348232 87 1 0 13 2 0 0 0 0 0 87 173 2881 14 14 0 85 85 195 1165 84
10 0 7 1 0 24532168 -113501790 -30462263 -79032649 89 2 1 7 3 0 0 0 0 0 88 175 2892 10 10 0 87 87 200 1275 85
10 0 8 1 0 33325205 -121279368 -30736290 -80310663 88 0 0 3 0 3 3 0 0 0 88 175 2931 9 3 6 86 86 148 1277 86
10 0 9 1 0 51995442 -103490625 -65223478 -79777436 89 0 0 5 0 0 0 0 0 0 89 177 2962 5 5 0 87 87 124 1279 87
10 0 10 1 0 33225708 -68457793 -73313009 -87736736 91 3 1 8 3 1 1 0 0 0 90 181 3005 14 12 2 89 89 169 1271 85
10 0 11 1 0 -4237647 -58239250 -56477017 -77366905 90 4 2 16 5 0 0 0 2 0 90 179 2973 24 22 2 88 88 222 1173 84
10 0 12 1 0 -2736631 -65742938 -48396134 -80968764 94 2 1 15 4 2 2 0 2 0 94 185 3035 24 18 6 92 92 225 1350 90
10 0 13 1 0 23590883 -95235231 -51706601 -73870611 85 6 0 30 8 10 10 0 0 0 85 163 2694 56 36 20 83 83 341 1081 77
10 0 14 1 3 -85623537 -115408117 -18920549 21594135 105 33 10 57 42 23 23 0 2 0 105 175 2868 148 100 48 103 103 757 978 70
10 0 15 1 0 17071717 -65814653 -65298186 -83253826 93 5 2 15 7 6 4 2 0 0 93 181 2991 34 22 12 91 91 237 1266 86
10 0 16 1 0 13156029 -110327115 -26315092 -73043903 85 8 2 17 8 0 0 0 0 0 85 169 2868 27 27 0 83 83 279 1029 75
10 0 17 1 0 44501883 -97938690 -52754343 -89636067 79 4 0 30 7 1 1 0 0 0 79 157 2781 36 34 2 77 77 304 1157 73
10 0 18 1 0 20508985 -86644929 -44648352 -86365486 85 3 2 18 7 1 1 0 1 0 85 169 2875 26 23 3 83 83 245 1189 80
10 0 19 1 0 10216442 -88796980 -36661469 -83465272 88 6 1 15 9 7 7 0 1 0 88 171 2872 37 22 15 86 86 280 1200 80
10 0 20 1 0 21451296 -110881976 -33449936 -73948670 83 10 2 31 13 1 1 0 0 0 83 161 2640 45 43 2 81 81 378 1063 71
10 0 21 1 0 -16367865 -93427071 -31337461 -55522710 79 11 3 35 17 1 1 0 0 0 79 157 2519 51 49 2 77 77 394 871 66
10 0 22 1 0 49957983 -120896499 -49249701 -77416347 85 0 0 11 2 0 0 0 0 0 84 169 2881 11 11 0 83 83 169 1210 83
10 0 23 1 0 42516389 -87093197 -65253598 -86414729 89 2 2 15 2 1 1 0 0 0 89 177 2965 21 19 2 87 87 198 1275 85
10 0 24 1 0 27638928 -101715782 -43356224 -78209852 79 3 0 26 5 0 0 0 0 0 79 157 2492 29 29 0 77 77 297 976 74
10 0 25 1 0 34430638 -98405489 -50990308 -80520290 79 0 0 24 3 0 0 0 0 0 79 157 2509 24 24 0 77 77 272 1053 77
10 0 26 1 0 47267728 -108070033 -56950894 -79237700 87 5 1 17 5 0 0 0 0 0 87 171 2738 23 23 0 85 85 251 1188 80
10 0 27 1 0 19406165 -82291736 -47485934 -86526275 85 5 2 19 6 1 1 0 1 0 85 167 2731 29 26 3 83 83 258 1084 78
10 0 28 1 0 23747406 -101965691 -45631993 -74382284 87 1 0 16 2 2 2 0 0 0 86 169 2783 21 17 4 85 85 221 1139 84
10 0 29 1 2 -38791827 -147747757 8647198 -23810377 107 21 9 41 25 34 34 0 0 0 107 169 2778 139 71 68 105 105 559 1217 84
12 0 0 1 2 -27021640 -60794845 5104931 -118555078 79 4 2 17 6 3 3 1 0 0 79 155 4393 30 23 7 77 77 227 1840 74
12 0 1 1 2 -14935675 -79249960 13043401 -119027949 73 2 2 17 3 2 2 0 0 0 73 145 4204 25 21 4 71 71 225 1707 69
12 0 2 1 2 -5856259 -81546766 3722742 -116926109 73 0 0 16 1 2 2 0 0 0 73 145 4154 20 16 4 71 71 188 1765 71
12 0 3 1 2 -20342593 -59738430 -5790499 -115669339 82 2 1 16 2 4 3 2 1 0 82 161 4656 29 19 10 80 80 208 1914 78
12 0 4 1 2 -8851160 -77431714 877760 -115220317 76 2 0 17 4 1 1 0 0 0 76 151 4301 21 19 2 74 74 217 1769 72
12 0 5 1 2 -43912050 -35101473 -7351900 -113744758 80 5 4 16 8 3 3 0 2 0 80 159 4545 33 25 8 78 78 249 1726 72
12 0 6 1 2 -14585576 -72548889 2213622 -115870526 82 1 1 11 1 4 4 0 0 0 82 163 4669 21 13 8 80 80 207 1895 79
12 0 7 1 2 -27315532 -63644532 8518470 -117689097 75 5 2 26 5 3 3 1 0 0 75 147 4271 40 33 7 73 73 292 1660 68
12 0 8 1 2 -55490865 -75584347 38836016 -104711081 72 10 3 27 15 3 3 2 0 0 72 139 4035 48 40 8 70 70 369 1431 60
12 0 9 1 2 -12059962 -73893133 3821727 -115527162 66 3 3 31 11 1 1 0 0 0 66 131 3853 39 37 2 64 64 320 1464 61
12 0 10 1 2 -11766819 -74603105 9820661 -121818748 68 2 2 24 4 1 1 0 0 0 68 135 3943 30 28 2 66 66 261 1513 64
12 0 11 1 2 -21617728 -78777203 17452972 -117441615 72 5 2 20 7 2 2 0 0 0 71 138 4023 31 27 4 69 70 275 1597 64
12 0 12 1 2 -26900269 -52569634 7107760 -126245157 73 4 1 22 7 6 3 4 0 0 73 142 4150 40 27 13 71 71 259 1660 67
12 0 13 1 2 -10004007 -59589801 328050 -128626091 65 1 1 18 1 2 2 0 1 0 65 129 3760 25 20 5 63 63 223 1486 62
12 0 14 1 2 -12819992 -79574546 11941096 -119292446 70 2 1 19 3 1 1 0 0 0 69 139 3975 24 22 2 68 68 223 1556 65
12 0 15 1 2 -40409518 -34736356 -1708102 -119240090 77 6 5 20 9 11 3 10 1 0 77 147 4197 56 31 25 75 75 286 1655 69
12 0 16 1 0 -13653814 -35590376 -28031174 -119214686 78 1 0 22 1 8 3 8 1 0 78 153 4354 43 23 20 76 76 235 1870 75
12 0 17 1 2 -4080101 -71926038 -3962589 -120841011 81 0 1 8 0 2 2 0 1 0 81 161 4607 14 9 5 79 79 151 1971 79
12 0 18 1 2 -22674420 -58713040 -2701210 -116729156 83 0 1 13 0 2 2 0 3 0 83 165 4650 21 14 7 81 81 186 1987 81
12 0 19 1 2 -30155787 -52501968 -2321062 -115181576 83 3 0 13 3 11 8 6 0 0 82 155 4504 41 16 25 80 81 213 1852 77
12 0 20 1 2 -17190009 -77647876 17085929 -121050738 71 4 2 22 10 1 1 0 0 0 70 140 4055 30 28 2 68 69 288 1572 64
12 0 21 1 2 -48896627 -47750456 12061957 -115495618 80 9 5 22 12 9 6 4 1 0 80 152 4385 56 36 20 78 78 305 1693 68
12 0 22 1 2 -19930895 -73766913 10761058 -117075833 72 3 2 18 3 3 3 0 0 0 72 143 4158 29 23 6 70 70 217 1601 67
12 0 23 1 2 -19150520 -67059539 3790639 -117453029 72 3 1 17 5 2 2 0 0 0 72 143 4092 25 21 4 70 70 220 1680 67
12 0 24 1 2 -5517956 -79191607 8568066 -123650054 68 0 0 6 0 4 4 0 0 0 68 135 3853 14 6 8 66 66 139 1586 66
12 0 25 1 2 -40423307 -75147553 32046019 -116166288 71 7 3 21 10 1 1 1 1 0 71 139 4028 35 31 4 69 69 280 1486 62
12 0 26 1 2 -19704155 -53561839 -6451047 -120410191 83 1 1 13 3 3 3 1 0 0 83 165 4702 22 15 7 81 81 203 1982 80
12 0 27 1 2 -32833310 -47758685 -4854601 -114499863 75 3 2 19 5 5 5 0 2 0 75 149 4283 36 24 12 73 73 250 1734 70
12 0 28 1 2 -31019146 -63133715 8491130 -115935900 81 5 3 19 5 3 3 0 1 0 81 159 4639 34 27 7 79 79 265 1819 74
12 0 29 1 2 -38167020 -57045002 14149733 -118664607 71 5 2 15 6 2 2 1 2 0 70 138 3997 29 22 7 68 69 252 1508 63
14 0 0 1 0 44642195 -119040720 -24692366 -100761443 78 0 0 11 0 0 0 0 0 0 78 155 4102 11 11 0 76 76 183 1734 76
14 0 1 1 0 47343391 -119973355 -22606586 -103862210 77 0 0 7 0 0 0 0 0 0 77 153 4021 7 7 0 75 75 188 1712 75
14 0 2 1 0 47696187 -108659120 -32680730 -105043337 79 0 0 8 0 0 0 0 0 0 79 157 4125 8 8 0 77 77 177 1769 77
14 0 3 1 0 44015643 -105790941 -36250246 -101921284 79 0 0 8 0 0 0 0 0 0 79 157 4089 8 8 0 77 77 145 1753 77
14 0 4 1 0 46324129 -94840072 -42622856 -106830247 77 0 0 12 0 0 0 0 0 0 77 153 3999 12 12 0 75 75 173 1683 75
14 0 5 1 0 47759933 -93085233 -47943346 -104563271 77 0 0 16 0 0 0 0 0 0 76 152 3958 16 16 0 74 75 183 1626 74
14 0 6 1 0 42841092 -102460327 -31752225 -107962670 76 1 0 9 1 1 1 0 0 0 75 150 3982 12 10 2 74 74 180 1645 72
14 0 7 1 0 45520140 -121529845 -21306549 -102177702 77 0 0 9 1 0 0 0 0 0 76 152 3980 9 9 0 74 75 206 1689 74
14 0 8 1 0 47065994 -110719088 -33218192 -101813515 78 0 0 13 1 0 0 0 0 0 78 155 4060 13 13 0 76 76 212 1701 76
14 0 9 1 0 40364948 -69404120 -65263592 -104699768 82 0 0 5 0 0 0 0 0 0 82 163 4259 5 5 0 80 80 103 1798 80
14 0 10 1 0 45275976 -102497452 -37864005 -103762818 76 0 0 11 0 0 0 0 0 0 75 150 3991 11 11 0 73 74 169 1666 73
14 0 11 1 0 28355309 -84519577 -33991127 -108719316 78 0 0 13 2 0 0 0 0 0 78 154 4130 13 13 0 76 76 195 1747 76
14 0 12 1 0 45974618 -108101271 -30684424 -106029370 76 0 0 7 0 0 0 0 0 0 76 151 4022 7 7 0 74 74 163 1690 74
14 0 13 1 0 45106523 -102791608 -38485815 -102989161 77 0 0 12 0 0 0 0 0 0 77 153 4111 12 12 0 75 75 172 1723 75
14 0 14 1 2 -41467061 -44702077 -19034031 -96336651 91 12 6 24 15 7 6 2 3 0 90 170 4539 60 42 18 88 89 355 1745 76
14 0 15 1 0 38310485 -85928526 -50907435 -101669142 85 2 0 5 2 1 1 0 0 0 84 168 4477 9 7 2 83 83 143 1806 80
14 0 16 1 0 38166354 -81767419 -59887197 -97236801 87 0 0 5 0 0 0 0 0 0 87 173 4554 5 5 0 85 85 115 1940 85
14 0 17 1 0 39316994 -74252559 -67227648 -98269313 86 0 0 2 0 0 0 0 0 0 86 171 4512 2 2 0 84 84 108 1931 84
14 0 18 1 0 38689827 -73440354 -66031245 -99582110 85 0 0 2 0 0 0 0 0 0 85 169 4444 2 2 0 83 83 110 1905 83
14 0 19 1 0 39276194 -69583485 -71295751 -98489414 88 0 0 0 0 0 0 0 0 0 88 175 4552 0 0 0 86 86 99 1954 86
14 0 20 1 0 37490148 -60322540 -78638482 -99120704 89 0 0 0 0 0 0 0 0 0 88 177 4669 0 0 0 87 87 79 2025 86
14 0 21 1 0 27403577 -38578374 -94154289 -96045896 92 0 0 0 0 0 0 0 0 0 92 183 4879 0 0 0 90 90 52 2070 90
14 0 22 1 0 28035998 -40821310 -93015653 -95440135 93 0 0 0 0 0 0 0 0 0 93 185 4871 0 0 0 91 91 59 2079 91
14 0 23 1 0 30464373 -10509372 -115780057 -103438600 94 0 0 0 0 0 0 0 0 0 94 187 4920 0 0 0 92 92 38 2116 92
14 0 24 1 0 29654049 -22470324 -107168530 -100019752 94 0 0 0 0 0 0 0 0 0 94 187 4906 0 0 0 92 92 48 2107 92
14 0 25 1 0 40030993 -78743821 -62094263 -99571347 87 0 0 7 0 0 0 0 0 0 87 173 4566 7 7 0 85 85 130 1946 85
14 0 26 1 0 41037369 -119712788 -28561271 -94062769 83 0 0 7 1 0 0 0 0 0 83 165 4361 7 7 0 81 81 170 1863 81
14 0 27 1 0 38890490 -106874731 -39786466 -93161369 85 0 0 3 0 0 0 0 0 0 85 169 4412 3 3 0 83 83 132 1820 83
14 0 28 1 0 42296922 -114405912 -30592780 -97160596 82 0 0 6 0 0 0 0 0 0 82 163 4236 6 6 0 80 80 166 1783 80
14 0 29 1 0 45253762 -109613173 -32541841 -102473659 80 0 0 7 0 0 0 0 0 0 80 159 4172 7 7 0 78 78 163 1786 78
16 0 0 1 1 -63637637 17963470 -81419000 -75204341 105 0 0 1 0 0 0 0 0 0 105 16 1835 1 1 0 103 103 88 768 103
16 0 1 1 0 -22299977 -51501607 -34229144 -90391346 86 0 0 5 0 0 0 0 0 0 86 16 1566 5 5 0 84 84 153 582 84
16 0 2 1 0 -28673569 -30967600 -55480878 -84668543 93 0 0 1 0 0 0 0 0 0 93 24 1691 1 1 0 91 91 137 741 91
16 0 3 1 1 -57286047 20332554 -56253062 -105095322 93 3 2 8 3 2 0 2 1 0 92 32 1786 18 13 5 91 91 150 805 88
16 0 4 1 0 -12800579 -29897555 -46239506 -107244488 80 0 0 7 0 1 0 1 0 0 80 44 1587 9 7 2 78 78 148 704 78
16 0 5 1 1 -55737370 35331897 -87769210 -90932163 86 0 0 0 0 0 0 0 0 0 86 0 1541 0 0 0 84 84 67 503 84
16 0 6 1 0 5233085 -61415917 -61829359 -80186224 88 2 0 7 3 1 1 0 0 0 88 96 1872 11 9 2 86 86 167 692 84
16 0 7 1 0 -246611 -52085510 -52577770 -91714078 84 0 0 6 0 3 3 0 0 0 84 85 1792 12 6 6 82 82 136 749 82
16 0 8 1 0 -11071174 -55476932 -41219422 -90354337 85 2 0 11 3 1 1 0 0 0 85 72 1746 15 13 2 83 83 181 776 81
16 0 9 1 0 3063586 -54863486 -49362325 -95499638 82 0 0 7 0 4 4 0 0 0 82 79 1739 15 7 8 80 80 157 767 80
16 0 10 1 0 -21392350 -40108138 -39830179 -97132647 86 0 0 6 0 1 1 0 0 0 86 28 1608 8 6 2 84 84 134 669 84
16 0 11 1 2 -45715010 -35749521 -23411329 -94176776 85 3 0 5 3 1 1 0 0 0 85 43 1626 10 8 2 83 83 162 640 80
16 0 12 1 0 2321064 -53998002 -56794284 -87823355 84 0 0 1 0 0 0 0 0 0 83 64 1688 1 1 0 81 82 119 622 81
16 0 13 1 0 -9960576 -73751739 -35109381 -79299731 85 3 0 10 3 2 2 0 0 0 85 93 1781 17 13 4 83 83 185 649 80
16 0 14 1 0 -12231455 -59223571 -42525508 -83674653 90 3 1 12 3 3 3 0 1 0 90 102 1935 23 16 7 88 88 213 798 85
16 0 15 1 0 1111462 -75161105 -39684039 -83979707 86 0 0 3 0 0 0 0 0 0 86 66 1700 3 3 0 84 84 138 720 84
16 0 16 1 0 -10160310 -68821549 -33144623 -87591897 84 0 0 9 1 1 1 0 0 0 84 53 1669 11 9 2 82 82 164 737 82
16 0 17 1 2 -71024241 -50061505 -26451830 -53685598 97 15 3 23 18 11 10 1 1 0 97 73 1892 64 41 23 95 95 384 625 80
16 0 18 1 1 -74842212 44025120 -71713907 -95699973 94 4 0 6 5 5 4 1 3 0 93 40 1759 23 10 13 92 92 169 693 88
16 0 19 1 1 -29239534 -11870134 -70471492 -86564710 92 0 0 1 0 0 0 0 0 0 92 30 1736 1 1 0 90 90 105 605 90
16 0 20 1 1 -18316115 6449816 -97489395 -88078935 93 0 0 2 0 1 1 0 0 0 93 59 1848 4 2 2 91 91 73 667 91
16 0 21 1 1 -63344082 36696580 -72585798 -97680377 93 2 1 5 3 1 1 0 2 0 93 52 1829 12 8 4 91 91 129 638 89
16 0 22 1 1 -38251902 -3881639 -70163904 -86425516 92 1 0 3 2 2 2 0 2 0 91 66 1832 10 4 6 89 90 116 773 88
16 0 23 1 1 -54242172 17363208 -64508582 -98410711 95 3 1 4 4 5 4 1 0 0 95 19 1757 18 8 10 93 93 131 982 90
16 0 24 1 1 -47802852 14162310 -69051412 -97207122 90 0 0 0 0 1 1 0 0 0 90 0 1625 2 0 2 88 88 81 584 88
16 0 25 1 1 -46267671 -3050247 -53552463 -97154019 89 0 0 4 0 1 1 0 0 0 88 2 1613 6 4 2 87 87 113 564 86
16 0 26 1 1 -51616765 -11819731 -38013158 -98399801 88 2 1 6 3 1 1 0 0 0 87 16 1637 11 9 2 86 86 162 654 83
16 0 27 1 1 -30378024 -1278124 -62915261 -102992332 87 0 0 3 0 4 2 2 0 0 87 30 1684 11 3 8 85 85 111 725 85
16 0 28 1 0 -21626486 -50635521 -40419268 -86352191 86 0 0 2 0 0 0 0 0 0 86 34 1665 2 2 0 84 84 124 644 84
16 0 29 1 0 -25828566 -42584647 -41266740 -89025712 88 2 0 5 3 0 0 0 1 0 88 60 1790 8 7 1 86 86 156 786 84
18 0 0 1 0 -2043710 -19037468 -98936808 -75479277 99 11 4 17 12 7 7 0 0 0 99 191 2771 46 32 14 97 97 231 1112 86
18 0 1 1 0 19613336 -98091445 -33336475 -84520171 76 4 0 17 4 3 3 0 0 0 76 149 2055 27 21 6 74 74 249 833 70
18 0 2 1 0 21859166 -103464152 -21639768 -92583443 77 4 2 12 4 1 1 0 0 0 77 149 2104 20 18 2 75 75 228 816 71
18 0 3 1 0 31919778 -104642411 -42831411 -79796305 79 2 1 6 2 0 0 0 0 0 79 155 2127 9 9 0 77 77 158 814 75
18 0 4 1 0 29827909 -88487995 -48514666 -88537772 76 1 0 5 2 1 1 0 0 0 76 151 2138 8 6 2 74 74 137 824 73
18 0 5 1 0 33088374 -81636004 -66281655 -80933262 77 0 0 1 0 0 0 0 0 0 76 152 1932 1 1 0 74 75 101 731 74
18 0 6 1 0 39854503 -107905519 -41640376 -85871457 76 0 0 6 0 0 0 0 0 0 75 150 2175 6 6 0 74 74 143 854 73
18 0 7 1 0 30744593 -88641066 -41434803 -95371962 71 0 0 7 3 1 1 0 0 0 71 141 2022 9 7 2 69 69 154 784 68
18 0 8 1 0 40852677 -95128363 -47918082 -91709300 69 0 0 11 0 0 0 0 0 0 69 137 1866 11 11 0 67 67 141 705 67
18 0 9 1 0 37922277 -95379896 -46127577 -91379448 74 1 0 6 1 1 1 0 0 0 74 147 1958 9 7 2 72 72 131 742 71
18 0 10 1 0 40639126 -84916731 -62490804 -87280586 78 0 0 0 0 0 0 0 0 0 78 155 2191 0 0 0 76 76 112 862 76
18 0 11 1 0 36031209 -105205589 -46598976 -80245644 75 0 0 1 0 0 0 0 0 0 75 147 1854 1 1 0 73 73 106 785 73
18 0 12 1 2 -21494818 -95147563 -20795074 -55643493 68 10 3 38 15 3 3 0 0 0 68 125 1672 57 51 6 66 66 423 668 56
18 0 13 1 0 43379375 -105494185 -40061956 -91353565 67 2 2 18 5 0 0 0 0 0 67 133 1846 22 22 0 65 65 254 691 63
18 0 14 1 0 43257868 -91954418 -55193022 -90285573 76 0 0 10 1 0 0 0 0 0 76 151 2135 10 10 0 74 74 153 952 74
18 0 15 1 0 40800480 -94159578 -51357003 -89868385 74 0 0 4 0 0 0 0 0 0 74 147 2041 4 4 0 72 72 110 849 72
18 0 16 1 0 37888906 -110505106 -39481548 -83681294 75 0 0 3 0 0 0 0 0 0 75 149 1987 3 3 0 73 73 120 828 73
18 0 17 1 0 32422637 -109182867 -36465278 -82927527 74 1 0 16 3 0 0 0 0 0 74 147 2151 17 17 0 72 72 209 896 71
18 0 18 1 0 16881092 -100628619 -23642458 -88651453 76 7 3 14 7 2 2 0 0 0 76 147 2202 28 24 4 74 74 230 927 67
18 0 19 1 0 21785242 -90883149 -45454655 -82530043 80 0 0 6 1 0 0 0 0 0 80 159 2320 6 6 0 78 78 123 951 78
18 0 20 1 0 -5740129 -103083524 -23503102 -67301647 83 9 0 10 10 4 4 0 0 0 83 157 2299 27 19 8 81 81 229 939 72
18 0 21 1 0 13682936 -111548812 -25744813 -74674915 81 4 1 10 5 0 0 0 0 0 81 159 2309 15 15 0 79 79 187 872 75
18 0 22 1 0 40603954 -84603827 -56695565 -95108879 77 1 0 8 2 1 1 0 0 0 77 153 2518 11 9 2 75 75 137 1033 74
18 0 23 1 0 38682471 -110704234 -30172516 -93565088 73 4 1 14 4 0 0 0 0 0 73 143 2428 19 19 0 71 71 228 958 67
18 0 24 1 0 46327804 -111060521 -45506783 -85547316 71 2 0 24 5 0 0 0 0 0 71 141 2396 26 26 0 69 69 270 938 67
18 0 25 1 0 26336018 -100891229 -28759060 -92712104 74 3 1 14 4 1 1 0 0 0 74 145 2420 20 18 2 72 72 225 953 69
18 0 26 1 0 36168896 -71369725 -71814218 -88668766 81 0 0 3 0 0 0 0 0 0 81 161 2668 3 3 0 79 79 97 1070 79
18 0 27 1 0 40333306 -109371541 -42270515 -85289875 79 0 0 3 0 0 0 0 0 0 78 157 2553 3 3 0 77 77 124 1063 76
18 0 28 1 0 41802882 -115357767 -34546091 -88135001 73 1 0 10 2 0 0 0 0 0 73 145 2404 11 11 0 71 71 171 968 70
18 0 29 1 0 51901392 -117012054 -38314028 -92559391 72 0 0 11 0 0 0 0 0 0 71 143 2465 11 11 0 70 70 174 1036 69
20 0 0 1 0 31233464 -78601131 -64236896 -88638912 92 0 0 4 0 0 0 0 0 0 92 183 4305 4 4 0 90 90 118 1784 90
20 0 1 1 0 15418703 -61127594 -69569049 -86302707 99 0 0 0 0 0 0 0 1 0 99 197 4642 1 0 1 97 97 95 1927 97
20 0 2 1 1 -25834711 -20616602 -49532854 -103300307 96 3 1 5 3 3 2 1 4 0 96 191 4522 19 9 10 94 94 156 1764 91
20 0 3 1 0 32416792 -84930591 -60922828 -87140713 93 0 0 4 0 0 0 0 0 0 93 185 4396 4 4 0 91 91 120 1830 91
20 0 4 1 0 -10970779 -56113851 -37018159 -95487736 92 4 3 15 6 1 0 1 2 0 92 179 4258 26 22 4 90 90 249 1804 86
20 0 5 1 0 -11666746 -15238418 -69922861 -101902848 95 1 0 7 1 7 5 2 2 0 94 185 4314 24 8 16 92 93 135 1737 91
20 0 6 1 0 10309562 -41456373 -75923965 -93244211 98 3 1 6 4 2 2 0 1 0 98 192 4516 15 10 5 96 96 158 1947 93
20 0 7 1 0 30234078 -86075838 -59007742 -87001193 93 0 0 2 0 1 1 0 0 0 93 185 4389 4 2 2 91 91 118 1838 91
20 0 8 1 0 35053693 -63261664 -79171127 -92202290 93 0 0 0 0 0 0 0 0 0 93 185 4375 0 0 0 91 91 98 1889 91
20 0 9 1 0 33980097 -69660889 -72422845 -91310182 93 0 0 5 0 0 0 0 0 0 93 185 4380 5 5 0 91 91 120 1830 91
20 0 10 1 0 16930230 -83203445 -43640605 -91914772 91 0 0 4 0 1 1 0 0 0 91 181 4245 6 4 2 89 89 118 1749 89
20 0 11 1 2 -35965981 -52719713 -27924446 -85450931 94 4 2 7 5 8 7 1 2 0 94 183 4251 31 13 18 92 92 192 1661 88
20 0 12 1 0 458818 -49914601 -59551542 -92116827 97 2 0 4 3 2 1 2 0 0 97 191 4422 11 6 5 95 95 134 1804 93
20 0 13 1 2 -82331872 -73210248 26743220 -74995588 96 12 3 24 17 18 17 1 5 1 96 197 4387 80 39 41 94 94 396 1605 82
20 0 14 1 0 -20706664 -45903343 -31971143 -100140944 90 6 2 18 8 2 2 0 3 0 89 176 4056 33 26 7 87 88 275 1527 81
20 0 15 1 0 24707896 -71747056 -54406630 -96897015 86 1 0 9 2 6 6 0 0 0 86 168 3880 22 10 12 84 84 193 1545 83
20 0 16 1 2 -73294089 -42717445 5635907 -89205886 94 8 2 17 9 13 13 1 9 1 93 187 4064 63 27 36 92 92 266 1606 83
20 0 17 1 2 -76240466 -18958446 2352405 -105622063 100 10 4 17 10 20 19 5 19 1 100 207 4567 94 31 63 98 98 253 1916 88
20 0 18 1 0 2412069 -55633979 -45973911 -100037207 94 2 1 8 3 3 3 1 0 0 94 187 4397 18 11 7 92 92 199 1790 90
20 0 19 1 0 32465595 -100332813 -38485382 -93138322 85 0 0 9 0 2 2 0 0 0 85 169 3998 13 9 4 83 83 180 1592 83
20 0 20 1 0 38845617 -103643575 -43262121 -91450778 85 0 0 8 0 0 0 0 0 0 85 169 3993 8 8 0 83 83 156 1637 83
20 0 21 1 0 16142885 -66369125 -63783463 -86307664 89 3 0 6 3 0 0 0 0 0 89 177 4180 9 9 0 87 87 137 1684 84
20 0 22 1 0 35075553 -67346651 -65545452 -100641385 88 0 0 3 0 1 1 0 0 0 87 175 4102 5 3 2 86 86 117 1651 85
20 0 23 1 2 -27456374 -53884490 -21466284 -98526409 92 5 1 7 5 5 4 1 3 0 92 183 4309 26 13 13 90 90 202 1713 85
20 0 24 1 0 34698625 -90728167 -49917684 -94426483 92 0 0 9 0 4 4 0 0 0 91 183 4357 17 9 8 90 90 171 1890 90
20 0 25 1 0 24191694 -42656534 -92341915 -89553537 94 0 0 1 0 0 0 0 0 0 94 187 4393 1 1 0 92 92 71 1870 92
20 0 26 1 0 32035011 -79160707 -63794610 -89417957 90 0 0 4 0 0 0 0 0 0 90 179 4277 4 4 0 88 88 107 1770 88
20 0 27 1 0 32571902 -70002047 -74269004 -88954620 93 0 0 1 0 0 0 0 0 0 92 184 4366 1 1 0 90 91 92 1889 90
20 0 28 1 0 39891883 -89584087 -55276410 -93218752 88 0 0 6 0 0 0 0 0 0 88 177 4139 6 6 0 86 86 154 1676 86
20 0 29 1 0 35526953 -75790257 -61783954 -97522355 91 0 0 3 0 1 1 0 0 0 91 181 4297 5 3 2 89 89 125 1804 89
22 0 0 1 0 20558875 -70779189 -80765686 -66508462 91 1 0 4 1 0 0 0 0 0 90 178 2634 5 5 0 88 89 95 868 87
22 0 1 1 0 21373825 -74775363 -70512786 -73414945 86 2 0 2 2 2 2 0 0 0 86 169 2390 8 4 4 84 84 127 896 82
22 0 2 1 0 12688445 -35604916 -101128352 -73146331 91 0 0 0 0 0 0 0 0 0 91 181 2381 0 0 0 89 89 43 884 89
22 0 3 1 0 26194428 -47815384 -98557750 -75191208 88 0 0 0 0 0 0 0 0 0 88 173 2301 0 0 0 86 86 62 854 86
22 0 4 1 0 8740479 -56488521 -67662241 -80588779 88 3 1 9 4 1 1 1 0 0 88 173 2308 16 13 3 86 86 160 906 83
22 0 5 1 0 13528467 -93886413 -38746442 -77278531 83 3 1 7 5 1 1 0 0 0 83 165 2252 13 11 2 81 81 195 801 78
22 0 6 1 0 31069397 -61786116 -85383274 -79827647 87 3 1 5 3 0 0 0 0 0 87 165 2054 9 9 0 85 85 129 1034 82
22 0 7 1 0 -25972169 -32728444 -65865610 -74233339 101 4 1 11 6 6 6 0 2 0 101 191 2783 30 16 14 99 99 176 1094 95
22 0 8 1 0 11046713 -75933498 -48520329 -83037428 91 6 3 17 6 1 1 0 0 0 90 178 2651 28 26 2 88 89 237 966 82
22 0 9 1 0 24020304 -74222218 -72716446 -74326202 96 0 0 3 0 1 1 0 0 0 96 176 2690 5 3 2 94 94 122 1089 94
22 0 10 1 0 15118654 -30630540 -115504239 -65829171 103 0 0 3 1 0 0 0 0 0 103 191 2857 3 3 0 101 101 79 1201 101
22 0 11 1 1 -34545130 1027430 -91055861 -72044539 103 3 1 5 4 1 1 0 6 0 102 203 2981 17 9 8 101 101 124 1241 98
22 0 12 1 0 5787106 -46813538 -82286514 -74161047 101 2 1 3 2 2 1 1 1 0 101 201 3087 11 6 5 99 99 113 1261 97
22 0 13 1 0 5158636 -29641883 -99565783 -72390655 99 0 0 0 0 0 0 0 0 0 99 189 2918 0 0 0 97 97 66 1079 97
22 0 14 1 0 3142789 -28843075 -101755325 -69332377 102 1 0 3 1 0 0 0 0 0 102 203 3149 4 4 0 100 100 70 1145 99
22 0 15 1 0 1462009 -45814700 -96981683 -56440332 101 6 0 8 6 1 1 0 0 0 101 207 3212 16 14 2 99 99 154 1021 93
22 0 16 1 0 10564153 -12034537 -125344859 -69381064 103 0 0 2 1 3 3 0 0 0 103 203 3097 8 2 6 101 101 66 1131 101
22 0 17 1 1 -29774915 -17382736 -70917349 -78161068 100 3 1 7 4 2 2 0 3 0 100 197 2983 18 11 7 98 98 149 1054 95
22 0 18 1 0 4949885 -29050725 -107287673 -66150944 103 1 0 11 2 11 11 0 1 0 102 177 2681 35 12 23 101 101 158 1105 99
22 0 19 1 0 -13378684 -25067594 -88276591 -70281797 98 4 0 10 7 4 4 0 0 0 98 189 2845 22 14 8 96 96 189 1004 92
22 0 20 1 0 7635459 -38166721 -87327408 -78139493 100 3 1 4 3 2 1 1 0 0 99 199 3072 12 8 4 98 98 130 1205 94
22 0 21 1 0 3326438 -21928753 -108230945 -69430734 102 0 0 1 0 0 0 0 0 0 102 201 3047 1 1 0 100 100 59 1094 100
22 0 22 1 0 17836755 -54474087 -87935870 -72355297 96 1 0 10 2 1 1 0 0 0 96 191 2978 13 11 2 94 94 149 1062 93
22 0 23 1 0 19680433 -53127259 -95490004 -68457874 102 2 0 4 2 2 2 0 0 0 102 201 3130 10 6 4 100 100 111 1173 98
22 0 24 1 1 -10085689 1290865 -111716473 -76089972 105 4 0 5 4 2 2 0 0 0 104 205 3300 13 9 4 103 103 99 1252 99
22 0 25 1 0 10042613 -66817098 -77706929 -62811960 96 3 0 12 5 0 0 0 0 0 96 189 2777 15 15 0 94 94 185 1039 91
22 0 26 1 0 -18518470 -30734510 -70999851 -76449266 98 3 0 4 3 9 9 0 0 0 98 193 2880 25 7 18 96 96 134 1062 93
22 0 27 1 0 11671216 -22082209 -114797643 -71377563 100 0 0 0 0 2 2 0 0 0 100 197 2831 4 0 4 98 98 53 1135 98
22 0 28 1 0 -21597820 -29586494 -74257878 -72312151 103 4 1 9 6 4 4 0 0 0 102 199 2953 22 14 8 101 101 166 1130 96
22 0 29 1 0 5918745 -46449516 -89483455 -66587374 101 3 1 6 3 2 2 0 1 0 101 196 2582 15 10 5 99 99 126 1042 96
24 0 0 1 0 9175660 -33302021 -77797131 -96808926 88 3 0 7 3 6 6 1 0 0 88 171 3705 23 10 13 86 86 148 1577 83
24 0 1 1 1 -21501369 -4294005 -60784614 -111426214 84 3 2 5 4 7 7 0 2 0 84 161 3731 26 10 16 82 82 128 1641 79
24 0 2 1 0 29135989 -79016502 -43321305 -105305391 77 0 0 2 0 0 0 0 1 0 77 153 3506 3 2 1 75 75 102 1536 75
24 0 3 1 0 33290565 -96068260 -28024993 -107632957 75 0 0 9 1 0 0 0 0 0 75 149 3461 9 9 0 73 73 159 1606 73
24 0 4 1 0 -2872355 -79803666 -29675570 -87784250 80 11 1 16 12 2 2 1 0 0 80 153 3516 33 28 5 78 78 268 1389 67
24 0 5 1 0 31748739 -92259435 -34078328 -104017963 78 0 0 5 0 0 0 0 0 0 78 155 3568 5 5 0 76 76 125 1600 76
24 0 6 1 2 -21191317 -86900108 -11684936 -79807770 80 12 3 26 14 7 7 1 0 0 80 151 3498 56 41 15 78 78 350 1385 66
24 0 7 1 0 -12188120 -46611651 -22443161 -117847135 79 5 2 7 6 3 3 1 1 0 79 155 3569 22 14 8 77 77 170 1494 72
24 0 8 1 0 38774296 -73554587 -60870054 -103135671 79 0 0 7 0 0 0 0 0 0 78 157 3597 7 7 0 77 77 119 1631 77
24 0 9 1 0 -3985895 -59519198 -37677214 -97874530 85 11 4 22 13 9 9 1 0 0 84 155 3598 56 37 19 83 83 318 1557 71
24 0 10 1 0 7294351 -75235349 -30613760 -101797897 81 5 2 15 7 5 5 1 0 0 81 155 3518 33 22 11 79 79 230 1616 74
24 0 11 1 0 42781828 -86114481 -49590916 -104296253 76 0 0 6 0 0 0 0 0 0 76 151 3401 6 6 0 74 74 134 1460 74
24 0 12 1 2 -52416599 -65668406 -16509080 -66797984 93 18 6 29 22 12 10 3 1 0 93 173 3879 79 53 26 91 91 417 1447 73
24 0 13 1 1 -19828684 24608565 -90886061 -110229185 97 2 0 6 2 8 4 4 2 0 96 185 4068 26 8 18 94 95 113 1770 92
24 0 14 1 0 -18182980 -42173686 -44789572 -94615190 85 2 0 8 2 10 10 0 2 0 85 163 3489 32 10 22 83 83 160 1405 81
24 0 15 1 0 3274093 -54772431 -37662181 -109068309 81 1 0 8 1 6 5 3 1 0 80 155 3364 24 9 15 79 79 164 1404 77
24 0 16 1 0 14260102 -71676042 -35239640 -104705413 76 4 1 15 5 4 2 2 0 0 76 147 3115 28 20 8 74 74 223 1289 70
24 0 17 1 0 -11621030 -40577300 -36544164 -109176729 79 3 0 3 3 4 3 1 0 0 79 153 3271 14 6 8 77 77 140 1325 74
24 0 18 1 0 13481245 -45479464 -54686417 -109869565 83 6 3 12 6 5 2 3 0 0 83 159 3389 31 21 10 81 81 189 1390 75
24 0 19 1 0 38684292 -94800862 -49888238 -92945359 81 0 0 2 0 0 0 0 0 0 81 161 3430 2 2 0 79 79 115 1560 79
24 0 20 1 0 18997071 -89215163 -32740782 -95912373 83 3 1 8 3 1 1 0 0 0 83 163 3454 14 12 2 81 81 188 1486 78
24 0 21 1 0 37966502 -54676178 -75813958 -103742403 80 0 0 4 0 0 0 0 0 0 80 159 3357 4 4 0 78 78 92 1460 78
24 0 22 1 0 33179759 -63658900 -56886280 -109191665 80 1 0 9 2 4 1 3 0 0 80 157 3307 18 10 8 78 78 147 1453 77
24 0 23 1 0 34839231 -71748096 -67359554 -94720969 86 1 0 5 1 0 0 0 0 0 86 171 3656 6 6 0 84 84 118 1699 83
24 0 24 1 1 -22834222 29266709 -105045188 -100452156 103 3 0 4 3 4 4 0 6 0 103 201 4311 21 7 14 101 101 103 2108 98
24 0 25 1 0 5094409 -39294484 -65140019 -99432254 88 2 0 4 2 2 2 0 3 0 88 173 3765 13 6 7 86 86 142 1596 84
24 0 26 1 0 15323683 -54585827 -49013829 -108007349 77 4 0 15 5 5 3 3 0 0 77 151 3230 30 19 11 75 75 229 1324 71
24 0 27 1 2 -98850836 -132845893 38535956 -6981538 100 41 17 48 43 24 23 3 0 0 100 161 3507 156 106 50 98 98 735 1022 57
24 0 28 1 0 19732645 -85082474 -35178361 -98438015 83 6 3 16 7 2 2 0 0 0 82 163 3491 29 25 4 81 81 246 1484 75
24 0 29 1 2 -56625515 -81505447 -928057 -61038177 97 23 8 37 30 16 16 1 1 0 96 165 3556 102 68 34 94 95 554 1374 71
26 0 0 1 0 29224390 -79299072 -73484262 -74133578 88 0 0 5 0 0 0 0 0 0 88 74 786 5 5 0 86 86 117 600 86
26 0 1 1 0 5599146 -11146812 -120702876 -71075756 101 2 0 4 2 5 5 0 0 0 101 70 592 16 6 10 99 99 99 589 98
26 0 2 1 0 39501111 -86292595 -71185622 -77165508 87 0 0 11 0 0 0 0 0 0 87 91 936 11 11 0 85 85 178 595 85
26 0 3 1 0 36503432 -103100079 -55325785 -75339024 84 2 0 8 2 0 0 0 0 0 84 83 790 10 10 0 82 82 190 637 80
26 0 4 1 0 30816603 -68003528 -78993953 -80608881 88 0 0 3 0 0 0 0 0 0 88 53 633 3 3 0 86 86 114 602 86
26 0 5 1 0 28802571 -81611826 -68781902 -75159400 86 1 0 7 2 0 0 0 0 0 86 80 909 8 8 0 84 84 162 542 83
26 0 6 1 0 55266252 -70650204 -92315513 -89400786 87 0 0 8 1 0 0 0 0 0 86 73 575 8 8 0 85 85 137 664 84
26 0 7 1 0 30017541 -44621559 -91284726 -90154192 86 1 0 4 2 1 1 0 0 0 85 47 451 7 5 2 83 84 112 560 82
26 0 8 1 0 -4556863 -22492202 -75552596 -92928199 88 0 0 0 0 0 0 0 0 0 87 24 681 0 0 0 85 86 104 587 85
26 0 9 1 0 247800 -57342272 -45962198 -92646517 83 0 0 3 0 0 0 0 0 0 83 28 753 3 3 0 81 81 136 531 81
26 0 10 1 0 34876201 -56581038 -89763175 -84221551 86 0 0 4 0 0 0 0 0 0 86 70 855 4 4 0 84 84 114 627 84
26 0 11 1 0 39872993 -62772990 -94051426 -78169934 87 0 0 2 0 0 0 0 0 0 86 114 1016 2 2 0 85 85 113 662 85
26 0 12 1 0 41387695 -96798806 -65736772 -74867356 83 0 0 5 0 0 0 0 0 0 83 113 1070 5 5 0 81 81 135 598 81
26 0 13 1 0 19282786 -89368956 -57097901 -69843494 89 3 1 8 3 0 0 0 0 0 89 100 1041 12 12 0 87 87 184 634 84
26 0 14 1 0 8944215 -45860720 -88490162 -71326337 91 4 0 9 4 3 3 0 0 0 91 109 992 19 13 6 89 89 179 591 85
26 0 15 1 0 30870914 -66830472 -91378257 -69675276 91 0 0 0 0 0 0 0 0 0 91 103 1000 0 0 0 89 89 93 647 89
26 0 16 1 0 17425744 -87805982 -52969680 -73456148 91 0 0 7 0 0 0 0 0 0 90 67 958 7 7 0 89 89 151 612 88
26 0 17 1 0 23779679 -77881105 -58277117 -83560053 86 0 0 8 1 0 0 0 0 0 86 65 873 8 8 0 84 84 152 672 84
26 0 18 1 0 -10663027 -50187644 -45041452 -90531955 83 1 2 15 2 0 0 0 0 0 83 31 791 18 18 0 81 81 189 560 80
26 0 19 1 0 18887755 -83590258 -50427242 -81521728 86 0 0 4 0 0 0 0 0 0 86 44 819 4 4 0 84 84 131 588 84
26 0 20 1 0 11831335 -54270251 -76585622 -77927668 88 0 0 1 1 0 0 0 0 0 88 52 797 1 1 0 86 86 102 562 86
26 0 21 1 0 32400076 -68303975 -86989756 -73648798 92 0 0 3 0 0 0 0 0 0 91 100 964 3 3 0 90 90 119 690 90
26 0 22 1 0 -19898936 -27003333 -72669278 -77371624 100 10 4 14 10 3 3 0 0 0 100 56 920 34 28 6 98 98 247 686 88
26 0 23 1 0 767735 -40581782 -84414478 -73801211 99 5 2 12 7 2 2 0 0 0 99 86 962 23 19 4 97 97 223 722 92
26 0 24 1 0 7730045 -53559902 -82111001 -70412377 97 4 0 7 4 1 1 0 0 0 97 71 887 13 11 2 95 95 171 637 91
26 0 25 1 0 9906895 -56595982 -80944663 -69678645 97 3 1 6 3 0 0 0 0 0 96 77 949 10 10 0 94 95 156 638 91
26 0 26 1 0 45083882 -94530435 -79561057 -65873513 90 0 0 7 0 0 0 0 0 0 89 176 1662 7 7 0 88 88 142 694 87
26 0 27 1 0 42232819 -98272875 -66532844 -72931523 91 0 0 3 1 1 1 0 0 0 91 147 1348 5 3 2 89 89 165 677 89
26 0 28 1 0 40194941 -87172069 -76416126 -71921571 89 0 0 7 0 0 0 0 0 0 89 121 1014 7 7 0 87 87 145 605 87
26 0 29 1 0 42401302 -111675337 -59204624 -67193128 86 0 0 15 0 0 0 0 0 0 86 135 1144 15 15 0 84 84 197 585 84
28 0 0 1 0 21913192 -41814424 -95337641 -80039538 80 0 0 0 0 0 0 0 0 0 80 159 2018 0 0 0 78 78 53 700 78
28 0 1 1 0 26562268 -57792074 -88280274 -75815897 83 0 0 2 0 0 0 0 0 0 83 165 2070 2 2 0 81 81 74 720 81
28 0 2 1 0 -5209057 -94523161 -25016970 -72241630 79 9 2 10 9 2 2 0 0 0 79 153 1959 25 21 4 77 77 228 593 68
28 0 3 1 0 38075338 -43132211 -108771347 -81134433 78 0 0 0 0 0 0 0 0 0 77 155 1904 0 0 0 76 76 56 608 76
28 0 4 1 0 18745545 -5910051 -110998810 -95477513 79 0 0 0 0 0 0 0 0 0 79 157 2016 0 0 0 77 77 15 621 77
28 0 5 1 0 30790780 -70208003 -76286900 -79479765 79 0 0 2 0 0 0 0 0 0 79 157 2069 2 2 0 77 77 97 692 77
28 0 6 1 0 18295161 -57467697 -69157015 -87290108 76 2 0 3 3 1 1 0 0 0 76 149 2011 7 5 2 74 74 109 646 72
28 0 7 1 0 18599913 -24774066 -101285277 -87811431 79 0 0 0 0 0 0 0 0 0 79 157 2160 0 0 0 77 77 29 693 77
28 0 8 1 0 31939427 -72891945 -74694990 -79292885 83 0 0 5 0 0 0 0 0 0 83 165 2320 5 5 0 81 81 120 781 81
28 0 9 1 0 32265153 -101244020 -49759140 -76934259 80 0 0 8 1 0 0 0 0 0 80 159 2265 8 8 0 78 78 157 725 78
28 0 10 1 0 36592313 -96214691 -52307670 -83588889 76 0 0 6 0 0 0 0 0 0 75 149 2105 6 6 0 73 74 131 723 73
28 0 11 1 0 32032204 -61702977 -82514019 -82469476 79 0 0 2 0 0 0 0 0 0 78 156 2182 2 2 0 76 77 90 699 76
28 0 12 1 0 37673525 -94774071 -53215726 -84070609 76 0 0 5 1 0 0 0 0 0 76 150 2066 5 5 0 74 74 130 740 74
28 0 13 1 0 23930124 -60189654 -77062925 -83394873 72 0 0 1 0 0 0 0 0 0 72 143 2010 1 1 0 70 70 60 688 70
28 0 14 1 0 32856876 -64951352 -77425545 -85600625 75 0 0 0 0 0 0 0 0 0 75 149 2064 0 0 0 73 73 80 715 73
28 0 15 1 0 32245387 -61440091 -80885627 -84533203 76 0 0 2 0 0 0 0 0 0 76 151 2075 2 2 0 74 74 83 666 74
28 0 16 1 0 19671192 -62893950 -76656135 -76895434 84 2 0 6 2 3 3 0 0 0 84 163 2399 14 8 6 82 82 138 786 80
28 0 17 1 0 1140078 -89038251 -31751782 -78028327 84 6 3 19 7 6 6 0 1 0 83 155 2452 41 28 13 82 82 290 815 75
28 0 18 1 2 -18058998 -72365914 -8579095 -97191020 75 4 1 21 9 16 16 0 2 0 75 143 2235 60 26 34 73 73 279 705 69
28 0 19 1 0 22573304 -84088018 -46033765 -87159392 71 3 0 20 4 2 2 0 0 0 71 137 2150 27 23 4 69 69 245 660 66
28 0 20 1 0 40286881 -102322519 -40539291 -91857692 69 0 0 10 0 0 0 0 0 0 68 137 2133 10 10 0 67 67 150 705 66
28 0 21 1 0 37160288 -96187456 -44787627 -90896245 70 0 1 8 0 0 0 0 0 0 69 139 2083 9 9 0 68 68 139 669 67
28 0 22 1 0 35262491 -93782998 -41724618 -94971492 67 0 0 8 0 2 2 0 0 0 67 131 2020 12 8 4 65 65 142 648 65
28 0 23 1 0 39040677 -105591089 -42303345 -86604919 71 0 0 3 0 0 0 0 0 0 71 141 2130 3 3 0 69 69 124 686 69
28 0 24 1 0 26585166 -112256051 -21211230 -88541136 72 0 0 9 0 0 0 0 0 0 71 143 2161 9 9 0 70 70 159 690 69
28 0 25 1 0 23074477 -100271899 -31390390 -88010835 70 2 0 4 3 1 1 0 0 0 70 137 2069 8 6 2 68 68 153 649 65
28 0 26 1 0 39601081 -103670575 -43313314 -87900433 70 0 0 3 0 0 0 0 0 0 70 139 2068 3 3 0 68 68 116 676 68
28 0 27 1 0 40293041 -101240821 -44681338 -89243081 71 0 0 5 0 0 0 0 0 0 71 141 2134 5 5 0 69 69 132 689 69
28 0 28 1 2 -40689676 -99707789 -13463889 -44580157 80 13 5 23 17 11 11 0 0 0 80 143 2201 63 41 22 78 78 371 658 65
28 0 29 1 0 37777506 -115177419 -35021383 -82731101 75 0 0 5 0 0 0 0 0 0 75 149 2338 5 5 0 73 73 160 767 73
30 0 0 1 0 32616886 -83955540 -29303437 -114628858 62 0 2 16 2 0 0 0 0 0 62 123 2508 18 18 0 60 60 205 1200 60
30 0 1 1 0 45565657 -91516845 -34236340 -115043030 59 0 0 17 0 0 0 0 0 0 59 117 2394 17 17 0 57 57 182 1139 57
30 0 2 1 0 40161735 -96167579 -27930818 -112111143 62 3 3 23 4 0 0 0 0 0 62 123 2464 29 29 0 60 60 237 1139 57
30 0 3 1 0 39166328 -89713518 -34293857 -111398963 62 0 0 11 1 0 0 0 0 0 62 123 2488 11 11 0 60 60 146 1195 60
30 0 4 1 0 45780242 -86409868 -38868581 -115622885 61 0 1 18 0 0 0 0 0 0 61 121 2461 19 19 0 59 59 189 1238 59
30 0 5 1 0 35258012 -78082964 -43462602 -108886936 64 1 0 20 5 0 0 0 0 0 63 126 2532 21 21 0 61 62 211 1182 60
30 0 6 1 0 53048954 -85709695 -44389199 -117482619 64 0 3 16 1 0 0 0 0 0 64 127 2563 19 19 0 62 62 194 1239 62
30 0 7 1 0 48201047 -79462445 -47322974 -115331748 63 2 1 19 4 0 0 0 0 0 63 125 2521 22 22 0 61 61 214 1177 59
30 0 8 1 0 50946401 -91573795 -40560990 -114597301 62 0 2 14 1 0 0 0 0 0 62 123 2497 16 16 0 60 60 172 1243 60
30 0 9 1 0 38689370 -82832755 -37266239 -113933134 62 0 1 17 2 0 0 0 0 0 62 123 2490 18 18 0 60 60 189 1200 60
30 0 10 1 0 46324407 -106004500 -20131855 -116167273 60 0 1 11 1 0 0 0 0 0 60 119 2446 12 12 0 58 58 167 1196 58
30 0 11 1 0 36842948 -87061985 -34171736 -111404385 62 1 1 19 3 0 0 0 0 0 62 123 2555 21 21 0 60 60 211 1230 59
30 0 12 1 0 10213885 -62065817 -27665590 -116716548 70 3 1 13 4 2 2 0 4 0 70 143 2794 25 17 8 68 68 179 1352 65
30 0 13 1 0 31006475 -81019049 -28041136 -117272920 58 1 2 12 3 0 0 0 0 0 58 115 2349 15 15 0 56 56 172 1114 55
30 0 14 1 0 56608541 -90396169 -44364599 -116920987 65 0 1 13 1 0 0 0 0 0 65 129 2627 14 14 0 63 63 170 1291 63
30 0 15 1 0 47654841 -104132636 -26963930 -113051847 61 0 1 13 0 0 0 0 0 0 61 121 2476 14 14 0 59 59 155 1238 59
30 0 16 1 0 41277527 -90763986 -30099701 -116009534 59 0 0 11 0 0 0 0 0 0 59 117 2393 11 11 0 57 57 153 1140 57
30 0 17 1 0 17097042 -69922940 -22578720 -120498370 64 3 1 14 4 1 1 0 1 0 64 125 2559 21 18 3 62 62 220 1178 59
30 0 18 1 0 37801149 -89454615 -31705957 -112724794 60 0 1 16 1 0 0 0 0 0 60 119 2458 17 17 0 58 58 177 1160 58
30 0 19 1 0 53359897 -96702492 -36919734 -114581678 58 0 0 18 0 0 0 0 0 0 58 115 2394 18 18 0 56 56 192 1120 56
30 0 20 1 0 49328046 -100218507 -26279585 -117932960 59 0 0 7 0 0 0 0 0 0 59 117 2429 7 7 0 57 57 157 1140 57
30 0 21 1 0 51537503 -104973263 -27331476 -114804165 59 0 0 15 0 0 0 0 0 0 59 117 2426 15 15 0 57 57 182 1155 57
30 0 22 1 0 43892861 -103914931 -26801296 -109792551 59 0 0 18 0 0 0 0 0 0 59 117 2460 18 18 0 57 57 188 1164 57
30 0 23 1 0 49757325 -108247836 -21784024 -115223113 59 0 0 10 0 0 0 0 0 0 59 117 2422 10 10 0 57 57 166 1140 57
30 0 24 1 0 49087968 -104021127 -24994231 -115541169 59 0 0 10 0 0 0 0 0 0 59 117 2441 10 10 0 57 57 162 1140 57
30 0 25 1 0 25347008 -71635306 -34628145 -114618789 64 3 2 21 4 1 1 0 0 0 64 125 2571 28 26 2 62 62 230 1180 59
30 0 26 1 0 45481614 -93540304 -36474305 -111806900 63 0 0 3 0 0 0 0 0 0 63 125 2576 3 3 0 61 61 108 1219 61
30 0 27 1 0 45873613 -91168717 -36024129 -114317883 62 0 0 8 0 0 0 0 0 0 61 123 2553 8 8 0 60 60 133 1180 59
30 0 28 1 0 36060027 -86058212 -27138566 -119401200 62 0 0 5 0 3 3 1 0 0 62 121 2507 12 5 7 60 60 128 1217 60
30 0 29 1 0 46941354 -93943423 -36169448 -113003422 63 0 0 9 1 0 0 0 0 0 63 125 2553 9 9 0 61 61 137 1281 61
32 0 0 1 3 -42880012 -87859800 -63446016 -2844315 87 27 6 42 29 3 3 0 0 0 87 149 1728 81 75 6 85 85 550 636 58
32 0 1 1 0 40487021 -65597246 -90511659 -79820416 80 0 0 6 1 0 0 0 0 0 79 159 1727 6 6 0 78 78 109 753 77
32 0 2 1 3 -55330964 -108176848 -39584259 1713724 90 30 7 34 32 5 5 0 0 0 89 153 1765 81 71 10 87 88 552 598 57
32 0 3 1 0 48429385 -89248776 -68612405 -85016993 73 1 0 13 2 0 0 0 0 0 73 145 1645 14 14 0 71 71 187 679 70
32 0 4 1 0 56645735 -108702040 -60748223 -82169844 73 0 0 17 1 0 0 0 0 0 73 145 1694 17 17 0 71 71 187 739 71
32 0 5 1 2 -51746233 -99376811 -20108144 -24238183 88 25 12 39 25 1 1 0 0 0 88 149 1891 78 76 2 86 86 535 640 61
32 0 6 1 0 42572860 -105360699 -52190973 -81462504 80 2 0 11 2 1 1 0 0 0 79 156 1873 15 13 2 77 78 191 825 75
32 0 7 1 0 53457220 -104687044 -63259148 -80558313 78 0 0 11 0 0 0 0 0 0 78 154 1825 11 11 0 76 76 170 759 76
32 0 8 1 0 35891968 -83112181 -62793289 -85190181 79 2 1 11 3 1 1 0 0 0 79 155 1727 16 14 2 77 77 174 754 75
32 0 9 1 0 53971548 -93061833 -73214134 -82607801 77 0 0 10 0 0 0 0 0 0 77 153 1641 10 10 0 75 75 143 745 75
32 0 10 1 0 50483776 -105620132 -56232827 -83513192 70 0 0 20 2 0 0 0 0 0 70 139 1556 20 20 0 68 68 226 717 68
32 0 11 1 0 26325431 -108755398 -37095076 -76230997 74 6 0 19 7 2 2 0 0 0 74 143 1647 29 25 4 72 72 256 660 66
32 0 12 1 0 -25284679 -90544031 -40963082 -41450171 80 18 5 31 21 5 5 0 0 0 80 145 1592 64 54 10 78 78 431 590 60
32 0 13 1 0 50759207 -100982963 -62510577 -81816411 73 0 0 16 1 0 0 0 0 0 73 139 1212 16 16 0 71 71 209 633 71
32 0 14 1 0 53973736 -105677787 -60490538 -82565590 74 0 0 13 0 0 0 0 0 0 74 145 1453 13 13 0 72 72 177 677 72
32 0 15 1 0 47746146 -82849626 -75475402 -83813182 75 1 0 11 1 0 0 0 0 0 75 149 1704 12 12 0 73 73 165 711 72
32 0 16 1 0 46771604 -65213444 -98245278 -78515799 82 0 0 1 0 0 0 0 0 0 82 163 1523 1 1 0 80 80 78 799 80
32 0 17 1 0 50516008 -102127347 -68878457 -75448092 79 0 0 1 0 0 0 0 0 0 79 157 1604 1 1 0 77 77 116 741 77
32 0 18 1 0 46228680 -66212917 -98174236 -77319945 83 0 0 0 0 0 0 0 0 0 83 165 1837 0 0 0 81 81 77 808 81
32 0 19 1 0 43522163 -74617574 -91815437 -73363148 81 0 0 2 0 0 0 0 0 0 81 161 1594 2 2 0 79 79 85 737 79
32 0 20 1 0 48495415 -76024654 -88050688 -79683954 82 0 0 2 0 0 0 0 0 0 82 163 1822 2 2 0 80 80 97 870 80
32 0 21 1 3 -40486444 -72251333 -65860542 -21451509 95 21 5 35 24 11 11 0 0 0 95 163 1694 83 61 22 93 93 487 711 72
32 0 22 1 0 51699409 -97741680 -71396387 -77626836 82 0 0 4 0 0 0 0 0 0 82 159 1595 4 4 0 80 80 126 787 80
32 0 23 1 0 36029954 -68289163 -72666669 -89595679 79 5 3 13 6 2 2 0 0 0 79 151 1396 25 21 4 77 77 201 688 72
32 0 24 1 0 46707194 -106476999 -61709385 -74641538 76 0 0 15 2 0 0 0 0 0 75 151 1262 15 15 0 74 74 189 709 73
32 0 25 1 0 47704458 -82587597 -75317824 -83583244 76 0 0 11 2 0 0 0 0 0 76 151 1310 11 11 0 74 74 162 681 74
32 0 26 1 0 51172418 -90398679 -70090938 -84455192 70 0 0 18 1 0 0 0 0 0 70 139 1324 18 18 0 68 68 220 610 68
32 0 27 1 0 48756508 -84860606 -65917023 -90619999 68 1 1 24 3 0 0 0 0 0 68 135 1443 26 26 0 66 66 264 628 65
32 0 28 1 0 48432200 -110001068 -57807201 -76892649 73 0 0 19 1 0 0 0 0 0 73 145 1464 19 19 0 71 71 206 701 71
32 0 29 1 0 49966628 -87617559 -70373545 -85715532 72 0 0 13 0 0 0 0 0 0 72 141 1304 13 13 0 70 70 178 630 70
33 0 0 1 1 -48208473 79207671 -113001014 -114021449 89 0 0 0 0 0 0 0 0 0 89 0 528 0 0 0 87 87 17 669 87
33 0 1 1 1 -52157677 50479950 -92719444 -104021343 90 0 0 0 0 0 0 0 0 0 90 2 522 0 0 0 88 88 35 681 88
33 0 2 1 1 -34457424 31400171 -89126938 -105241340 87 0 0 1 0 0 0 0 0 0 87 6 545 1 1 0 85 85 43 696 85
33 0 3 1 1 -49608975 58435828 -97515865 -108850710 88 0 0 0 0 0 0 0 0 0 88 0 449 0 0 0 86 86 28 672 86
33 0 4 1 1 -61647003 59550434 -95465865 -100085035 89 2 0 3 3 0 0 0 0 0 89 4 506 5 5 0 87 87 70 601 85
33 0 5 1 1 -45559577 62324740 -101316195 -112256577 87 0 0 0 0 1 1 0 0 0 87 0 543 2 0 2 85 85 35 667 85
33 0 6 1 1 -50140795 59386662 -98243235 -108643946 88 0 0 0 0 0 0 0 0 0 88 0 507 0 0 0 86 86 26 670 86
33 0 7 1 1 -52016122 60263120 -95021003 -111110588 89 0 0 0 0 0 0 0 0 0 88 0 494 0 0 0 86 87 22 658 86
33 0 8 1 1 -55660486 72722762 -99664598 -113721660 88 2 1 3 2 1 1 0 0 0 88 4 494 8 6 2 86 86 65 628 84
33 0 9 1 1 -53701929 54944927 -91050122 -108467056 88 0 0 0 0 0 0 0 0 0 88 0 483 0 0 0 86 86 24 610 86
33 0 10 1 1 -30130255 33210131 -96646654 -102849762 89 0 0 0 0 0 0 0 0 0 89 8 600 0 0 0 87 87 53 739 87
33 0 11 1 1 -42631426 42076861 -89312876 -107081063 88 1 0 3 3 1 1 0 0 0 88 10 630 6 4 2 86 86 81 711 85
33 0 12 1 1 -48262118 71069237 -106760716 -112738553 88 0 0 0 0 0 0 0 0 0 88 0 494 0 0 0 86 86 19 686 86
33 0 13 1 1 -51595057 58501243 -97630711 -106973057 88 0 0 0 0 0 0 0 0 0 88 0 511 0 0 0 86 86 26 622 86
33 0 14 1 1 -50041164 68282158 -105218090 -110079437 90 0 0 0 0 0 0 0 0 0 89 0 542 0 0 0 87 88 23 678 87
33 0 15 1 1 -29888677 14001825 -81100260 -100327788 89 0 0 3 0 0 0 0 0 0 89 16 688 3 3 0 87 87 69 783 87
33 0 16 1 1 -66891490 75518409 -98869165 -106861229 92 3 0 3 3 3 3 0 0 0 92 4 400 12 6 6 90 90 69 612 87
33 0 17 1 1 -23839806 4156892 -114923572 -62632999 108 11 1 12 11 6 6 0 1 0 108 109 1246 37 24 13 106 106 207 801 95
33 0 18 1 0 25910967 -78456402 -91199348 -55152221 107 0 0 2 0 0 0 0 0 0 107 123 1337 2 2 0 105 105 138 926 105
33 0 19 1 0 5404944 -31327006 -94398644 -77184873 94 0 0 0 0 0 0 0 0 0 94 66 955 0 0 0 92 92 68 764 92
33 0 20 1 0 8916033 -23674197 -100112132 -81701403 91 0 0 0 0 0 0 0 0 0 91 74 1029 0 0 0 89 89 57 757 89
33 0 21 1 0 27052543 -46060975 -103406116 -75125216 90 0 0 0 0 0 0 0 0 0 90 104 1239 0 0 0 88 88 75 789 88
33 0 22 1 0 14112675 -38288077 -96634251 -75896429 92 2 0 2 2 0 0 0 0 0 92 94 1214 4 4 0 90 90 95 779 88
33 0 23 1 0 24164919 -40515855 -110571430 -70955685 93 0 0 0 0 0 0 0 0 0 92 116 1380 0 0 0 90 91 56 807 90
33 0 24 1 0 -13235017 -32870031 -80483716 -71304019 95 12 3 19 14 3 3 0 0 0 94 93 1198 40 34 6 93 93 289 792 80
33 0 25 1 0 23863616 2208813 -132005096 -89772310 92 0 0 0 0 0 0 0 0 0 92 91 1132 0 0 0 90 90 25 807 90
33 0 26 1 0 22851640 -16563295 -120974642 -82099598 94 0 0 0 0 0 0 0 0 0 93 107 1271 0 0 0 91 92 42 819 91
33 0 27 1 0 5391178 -32590810 -84026066 -86675854 84 0 0 0 0 0 0 0 0 0 84 64 871 0 0 0 82 82 44 656 82
33 0 28 1 1 -28737800 12939442 -79809740 -101573417 83 0 0 0 0 0 0 0 0 0 82 10 602 0 0 0 80 81 59 640 80
33 0 29 1 1 -34218999 -2494461 -75772451 -86139373 92 4 0 5 4 3 3 0 0 0 91 27 674 15 9 6 90 90 129 716 86
34 1 0 1 0 1082168 -18803380 -72415961 -106232250 67 4 0 5 4 3 3 1 0 0 67 81 1587 16 9 7 65 65 93 763 61
34 1 1 1 0 12256966 -31085387 -67018782 -109005955 70 5 1 9 8 7 4 4 0 0 70 106 1744 30 15 15 68 68 147 781 63
34 1 2 1 0 -13702733 -57087805 -32083688 -94852350 69 10 1 10 10 5 4 4 0 0 69 101 1852 34 21 13 67 67 186 731 57
34 1 3 1 0 27853734 -28175563 -84561895 -107240133 67 0 0 0 0 7 0 7 0 0 67 75 1300 14 0 14 65 65 50 826 65
34 1 4 1 0 31033624 -73774863 -55382290 -98375468 67 0 0 0 0 0 0 0 0 0 67 68 1007 0 0 0 65 65 60 736 65
34 1 5 1 2 -39768032 -50843586 -25922862 -80317116 73 11 3 12 12 7 4 5 0 0 73 80 1189 42 26 16 71 71 222 653 60
34 1 6 1 0 9362388 -51365604 -51055425 -104323066 68 0 0 0 0 1 0 1 0 0 68 79 1109 2 0 2 66 66 52 788 66
34 1 7 1 0 27021200 -51390874 -72194066 -99088039 67 0 0 0 0 0 0 0 0 0 67 92 1179 0 0 0 65 65 43 735 65
34 1 8 1 0 43139035 -67491881 -71525022 -100152891 69 1 0 3 1 2 0 2 0 0 69 93 1152 8 4 4 67 67 82 756 66
34 1 9 1 0 4471035 -30958940 -59984083 -106009709 68 2 0 3 3 14 9 6 0 0 68 72 1101 34 5 29 66 66 103 699 64
34 1 10 1 0 5062992 -64672923 -33145303 -103010500 69 6 0 7 6 4 2 4 0 0 69 56 1112 23 13 10 67 67 150 614 61
34 1 11 1 0 6976035 -52939439 -49696044 -101031592 65 3 1 3 3 1 1 0 0 0 65 88 1304 9 7 2 63 63 85 614 60
34 1 12 1 0 24735038 -53594679 -68132135 -99353003 65 0 0 0 0 0 0 0 0 0 65 79 1249 0 0 0 63 63 38 687 63
34 1 13 1 0 21844567 -102788848 -25880586 -90817871 66 1 0 5 3 0 0 0 0 0 66 81 1327 6 6 0 64 64 124 691 63
34 1 14 1 0 32871715 -88077494 -43463261 -97690841 66 0 0 2 0 0 0 0 0 0 65 86 1360 2 2 0 63 64 77 700 63
34 1 15 1 0 10052795 -77725213 -31738164 -97568449 67 5 0 15 7 11 10 1 0 0 67 68 1179 42 20 22 65 65 236 718 60
34 1 16 1 0 8932938 -65592279 -29125330 -108931731 67 3 1 4 3 6 3 5 0 0 67 80 1289 22 8 14 65 65 142 773 62
34 1 17 1 0 30179491 -61576215 -53020686 -111148414 65 0 0 0 0 3 0 3 0 0 65 69 1290 6 0 6 63 63 63 810 63
34 1 18 1 2 -35748165 -90780132 23164 -71241385 70 13 1 18 13 10 7 4 0 0 70 68 1195 53 32 21 68 68 305 655 55
34 1 19 1 0 1372383 -80590817 -8790358 -106675365 65 6 1 6 6 4 2 3 0 0 65 89 1356 22 13 9 63 63 176 679 57
34 1 20 1 0 26662181 -80625294 -39548351 -101263623 66 3 0 3 3 0 0 0 0 0 66 79 1222 6 6 0 64 64 120 738 61
34 1 21 1 0 42838239 -98919589 -35679881 -102963305 65 0 0 1 0 0 0 0 0 0 64 73 1198 1 1 0 62 63 119 711 62
34 1 22 1 0 26092330 -83793887 -31280263 -106340744 65 1 0 6 3 4 4 0 0 0 65 86 1320 15 7 8 63 63 168 783 62
34 1 23 1 0 37202522 -114651048 -19389307 -98613319 65 0 0 2 0 0 0 0 0 0 65 71 1149 2 2 0 63 63 134 654 63
34 1 24 1 0 27593243 -51337839 -61747140 -109691406 66 0 0 0 0 2 0 2 0 0 66 70 1170 4 0 4 64 64 50 746 64
34 1 25 1 0 8071846 -72695391 -25411903 -104311929 65 6 0 15 8 10 8 2 0 0 64 76 1188 41 21 20 62 63 236 718 56
34 1 26 1 0 27493280 -79149922 -37195730 -106899970 66 1 0 6 2 1 1 0 0 0 65 77 1192 9 7 2 64 64 126 734 62
34 1 27 1 0 16503414 -83713045 -28354036 -99868877 65 2 0 4 2 6 6 0 0 0 65 76 1238 18 6 12 63 63 140 674 61
34 1 28 1 0 30274800 -89641159 -44228130 -93875769 66 0 0 0 0 0 0 0 0 0 66 76 1259 0 0 0 64 64 74 710 64
34 1 29 1 0 35522477 -82646376 -46568625 -102109413 65 0 0 2 0 0 0 0 0 0 65 81 1380 2 2 0 63 63 80 740 63
36 1 0 1 1 -61442622 11800482 -17466324 -125018723 57 1 0 3 2 1 1 0 10 0 57 37 1103 16 4 12 55 55 67 567 54
36 1 1 1 2 -57437964 -19075715 4858475 -124035367 57 0 0 4 0 3 3 0 6 1 57 44 1129 16 4 12 55 55 76 547 55
36 1 2 1 2 -82992241 -10698112 15742537 -117112270 57 0 0 0 0 0 0 0 9 1 56 27 1002 9 0 9 54 55 51 512 54
36 1 3 1 2 -95241570 -8831382 33082059 -124468599 58 2 2 13 5 2 2 0 6 1 58 28 1005 27 17 10 56 56 174 540 54
36 1 4 1 2 -88836695 -20091876 27096189 -113150787 57 2 0 8 3 3 3 0 12 1 57 42 1156 28 10 18 55 55 125 566 53
36 1 5 1 2 -109101282 -20593849 48721932 -116105551 57 5 1 12 6 0 0 0 8 1 57 30 1054 26 18 8 55 55 157 479 50
36 1 6 1 1 -72839249 48339127 -39655613 -126538576 56 2 0 7 2 4 4 0 20 0 56 51 1175 37 9 28 54 54 84 568 52
36 1 7 1 2 -83388303 -43757879 43848144 -111945944 58 5 0 18 8 2 2 0 7 1 58 35 1084 34 23 11 56 56 238 495 51
36 1 8 1 1 -69490454 12862506 -16500869 -119805666 57 1 0 14 5 7 7 0 8 0 57 41 1083 37 15 22 55 55 169 583 54
36 1 9 1 1 -80358182 32535182 -17252093 -128496329 57 2 0 4 2 0 0 0 8 0 57 28 1050 14 6 8 55 55 85 517 53
36 1 10 1 1 -89531590 38406953 -7093704 -135721610 56 3 0 9 4 2 2 0 5 0 56 27 989 21 12 9 54 54 134 552 51
36 1 11 1 2 -95568604 -51686577 32560739 -80962862 59 18 2 26 20 3 3 0 4 0 59 28 1097 56 46 10 57 57 372 384 39
36 1 12 1 1 -65824918 48983963 -31875657 -145317196 57 1 1 11 2 5 5 0 3 0 57 26 1100 26 13 13 55 55 119 641 54
36 1 13 1 2 -54942370 -10755255 3906147 -133853135 57 1 0 3 2 0 0 0 4 0 57 26 1105 8 4 4 55 55 98 578 54
36 1 14 1 2 -97350185 -31808829 51154487 -116723326 57 5 2 5 5 1 1 0 9 1 57 44 1184 23 12 11 55 55 122 486 50
36 1 15 1 1 -78073746 36236124 -24464772 -124608525 57 4 0 16 7 10 7 3 9 0 57 40 1029 49 20 29 55 55 187 623 51
36 1 16 1 1 -72880952 30490479 -9905884 -141286752 57 3 0 7 4 3 0 3 5 0 57 34 1135 21 10 11 55 55 119 660 52
36 1 17 1 1 -81997218 47763560 -15664651 -144448944 57 0 0 7 3 7 5 2 4 0 57 32 1087 25 7 18 55 55 102 621 55
36 1 18 1 1 -61925680 26673745 -14058079 -142718668 56 3 1 10 5 8 4 4 6 0 56 36 1125 36 14 22 54 54 128 721 51
36 1 19 1 1 -67805734 48571804 -28277972 -146143486 57 0 0 0 0 4 0 4 5 0 56 25 963 13 0 13 54 55 31 666 54
36 1 20 1 1 -56482267 37532019 -38529686 -133074466 57 0 0 0 0 3 0 3 10 0 57 42 1160 16 0 16 55 55 35 694 55
36 1 21 1 1 -50441544 26384438 -32237647 -133842777 56 0 0 0 0 2 0 2 11 0 56 32 1004 15 0 15 54 54 40 642 54
36 1 22 1 1 -58081553 28004202 -26946600 -136351056 57 0 0 0 0 4 0 4 8 0 57 36 1125 16 0 16 55 55 40 761 55
36 1 23 1 1 -52881131 20028783 -35878806 -122977784 56 0 0 0 0 0 0 0 12 0 56 41 1087 12 0 12 54 54 34 643 54
36 1 24 1 1 -47885833 21011246 -36169711 -130824197 56 0 0 0 0 1 0 1 5 0 56 38 1060 7 0 7 54 54 35 606 54
36 1 25 1 2 -74673447 -36076543 30654076 -116921694 57 4 0 12 5 4 4 0 6 1 57 37 1046 30 16 14 55 55 161 537 51
36 1 26 1 2 -87558382 -18384059 23644822 -113591864 56 1 0 7 3 3 3 0 9 1 56 39 1127 23 8 15 54 54 109 529 53
36 1 27 1 2 -76985958 -40547742 26492566 -105527332 57 0 0 12 6 25 25 0 8 1 57 35 1095 70 12 58 55 55 156 560 55
36 1 28 1 2 -60844648 -13570350 5345297 -126503422 59 8 0 12 8 1 0 1 3 0 59 22 1099 25 20 5 57 57 206 471 49
36 1 29 1 1 -49582766 33555344 -35904579 -142291950 58 0 0 4 3 2 2 0 2 0 58 25 1090 10 4 6 56 56 83 609 56
37 1 0 1 1 -95663044 123436100 -134645668 -90160120 97 3 0 3 3 0 0 0 0 0 97 0 798 6 6 0 95 95 55 340 92
37 1 1 1 2 -127663063 -26196846 -16746491 -25392823 91 40 38 42 42 0 0 0 0 0 91 0 492 120 120 0 89 89 633 154 49
37 1 2 1 1 -98271120 94876603 -114070131 -80489867 92 12 2 13 13 0 0 0 0 0 92 0 598 27 27 0 90 90 207 237 78
37 1 3 1 1 -70847281 130027527 -142152597 -112422954 98 0 0 0 0 1 0 1 0 0 97 0 981 2 0 2 96 96 7 562 95
37 1 4 1 1 -84831731 139375881 -149024698 -101872585 98 0 0 1 0 1 1 0 0 0 97 0 956 3 1 2 96 96 16 282 95
37 1 5 1 1 -90049399 140707994 -148922502 -97313818 96 6 3 6 6 0 0 0 0 0 96 0 1042 15 15 0 94 94 91 261 88
37 1 6 1 1 -88752044 144567457 -156134625 -94432333 99 6 5 7 7 0 0 0 0 0 98 0 1045 18 18 0 96 97 116 270 90
37 1 7 1 1 -84267693 130221378 -141545622 -101278236 96 0 0 0 0 1 1 0 0 0 95 0 962 2 0 2 93 94 18 271 93
37 1 8 1 1 -74542203 119506861 -129680464 -110764380 97 0 0 0 0 4 0 4 0 0 97 0 975 8 0 8 95 95 19 499 95
37 1 9 1 1 -68202211 116683620 -142201194 -101955868 96 0 0 0 0 0 0 0 0 0 96 0 1286 0 0 0 94 94 12 467 94
37 1 10 1 1 -82722282 79402540 -110225883 -85313829 92 7 4 11 7 0 0 0 0 0 92 0 1365 22 22 0 90 90 168 324 83
37 1 11 1 1 -94712606 121688695 -129980367 -94609453 95 2 1 3 3 0 0 0 0 0 95 0 1053 6 6 0 93 93 66 362 91
37 1 12 1 1 -97153767 82072474 -92239607 -89495180 98 14 11 15 15 0 0 0 0 0 98 0 1122 40 40 0 96 96 236 363 82
37 1 13 1 1 -103202078 127898346 -122852039 -99190011 91 5 3 8 5 4 4 0 0 0 91 0 1075 24 16 8 89 89 119 245 84
37 1 14 1 3 -139598236 -66535271 -17172832 22018801 97 41 20 54 41 0 0 0 0 0 97 0 798 115 115 0 95 95 748 189 54
37 1 15 1 1 -109399870 132973210 -123311685 -96934276 96 3 1 4 3 0 0 0 0 0 95 0 889 8 8 0 94 94 67 269 90
37 1 16 1 1 -84066317 99720722 -128092798 -86102225 93 1 0 2 1 0 0 0 0 0 92 0 946 3 3 0 90 91 53 262 89
37 1 17 1 1 -59667600 113247492 -132209329 -115819514 89 2 0 3 2 1 0 1 0 0 89 0 1106 7 5 2 87 87 53 506 85
37 1 18 1 1 -117387998 89359033 -92465758 -75795300 94 15 14 15 15 0 0 0 0 0 94 0 1202 44 44 0 92 92 237 306 77
37 1 19 1 1 -107742084 61504650 -107629642 -45464826 97 18 0 20 20 0 0 0 0 0 97 0 1124 38 38 0 95 95 300 380 77
37 1 20 1 1 -127194611 50314073 -66009910 -54513545 96 25 18 25 25 0 0 0 0 0 95 0 1128 68 68 0 94 94 377 204 68
37 1 21 1 1 -82676921 133804774 -144041948 -104121364 96 0 0 0 0 1 1 0 0 0 95 0 1353 2 0 2 93 94 16 347 93
37 1 22 1 1 -109006031 119578496 -118577409 -89564594 95 4 2 4 4 0 0 0 0 0 95 0 1288 10 10 0 93 93 89 267 89
37 1 23 1 1 -81334694 132515087 -147998936 -99626004 96 0 0 0 0 0 0 0 0 0 96 0 1025 0 0 0 94 94 13 361 94
37 1 24 1 3 -140460684 -18047090 -62376649 21695433 92 44 21 45 44 0 0 0 0 0 92 0 661 110 110 0 90 90 671 136 46
37 1 25 1 1 -83159723 127048187 -144005572 -97220853 96 0 0 0 0 0 0 0 0 0 96 0 1213 0 0 0 94 94 13 370 94
37 1 26 1 1 -114816843 133293783 -117514466 -96122003 98 12 8 13 12 0 0 0 0 0 98 0 1083 33 33 0 96 96 192 252 84
37 1 27 1 1 -81373866 150456093 -165759155 -98118302 98 0 0 1 0 0 0 0 0 0 98 0 1079 1 1 0 96 96 11 288 96
37 1 28 1 1 -73145408 118211925 -129771779 -111071631 91 2 1 2 2 2 1 2 0 0 91 0 1143 10 5 5 89 89 46 402 87
37 1 29 1 1 -119170404 120343371 -108176117 -90641537 95 10 3 11 10 4 2 2 0 0 95 0 984 32 24 8 93 93 185 329 83
39 1 0 1 3 -138770086 -55134619 -13477161 6310022 101 55 31 58 57 3 2 1 0 0 100 4 379 150 144 6 98 99 888 229 43
39 1 1 1 3 -129862336 -79280940 -39014951 47742660 99 48 22 65 54 2 2 0 0 0 99 2 665 139 135 4 97 97 905 222 48
39 1 2 1 3 -140784582 -74347136 -27861218 40070950 100 61 31 68 67 0 0 0 0 0 100 11 555 160 160 0 98 98 1008 213 37
39 1 3 1 3 -146139219 -16836332 -60476769 24203446 100 47 23 49 49 1 1 0 0 0 100 9 556 121 119 2 98 98 736 153 51
39 1 4 1 3 -139753137 -61121011 -34026813 35972318 99 65 49 68 65 0 0 0 0 0 99 14 572 182 182 0 97 97 998 63 32
39 1 5 1 3 -123394801 -73356887 -22752155 19770785 100 52 33 56 54 0 0 0 0 0 100 8 541 141 141 0 98 98 837 224 46
39 1 6 1 3 -144828527 -42157143 -34930836 21186643 99 46 29 51 50 0 0 0 0 0 98 4 584 126 126 0 97 97 769 137 51
39 1 7 1 1 -138030662 -3980477 -38970451 -16695876 100 41 31 42 42 0 0 0 0 0 99 2 373 114 114 0 98 98 637 160 56
39 1 8 1 1 -142993563 3879744 -57381070 -1573893 102 42 29 49 49 1 0 1 0 0 102 0 632 122 120 2 100 100 714 201 58
39 1 9 1 3 -142950892 -82692257 -18723702 35845620 103 78 22 90 84 11 5 6 0 0 103 4 620 212 190 22 101 101 1275 365 23
39 1 10 1 3 -159755774 -54427379 -59828498 68802895 105 71 37 84 81 0 0 0 0 0 105 8 641 192 192 0 103 103 1204 105 31
39 1 11 1 3 -147201485 -46076857 -53303242 44078847 101 58 27 66 63 5 5 0 0 0 101 4 573 161 151 10 99 99 946 166 41
39 1 12 1 3 -146080271 -74837079 -39019489 55336505 92 60 20 68 67 1 0 1 0 0 92 8 586 150 148 2 90 90 1006 152 30
39 1 13 1 3 -152527926 -78697559 -43905307 69357102 94 67 27 72 70 0 0 0 0 0 93 10 550 166 166 0 92 92 1071 50 25
39 1 14 1 2 -50781830 873110 8120101 -149842392 16 2 2 5 4 2 2 0 0 0 16 0 115 13 9 4 14 14 67 69 12
39 1 15 1 1 -22740386 6730843 -26263478 -153893553 0 0 0 0 0 0 0 0 0 0 0 0 0 0 0 0 0 0 0 0 0
39 1 16 1 1 -22740386 6730843 -26263478 -153893553 0 0 0 0 0 0 0 0 0 0 0 0 0 0 0 0 0 0 0 0 0
39 1 17 1 1 -22740386 6730843 -26263478 -153893553 0 0 0 0 0 0 0 0 0 0 0 0 0 0 0 0 0 0 0 0 0
39 1 18 1 1 -22740386 6730843 -26263478 -153893553 0 0 0 0 0 0 0 0 0 0 0 0 0 0 0 0 0 0 0 0 0
39 1 19 1 1 -22740386 6730843 -26263478 -153893553 0 0 0 0 0 0 0 0 0 0 0 0 0 0 0 0 0 0 0 0 0
39 1 20 1 1 -22809992 6823658 -26366328 -153763111 1 0 0 0 0 0 0 0 0 0 1 0 0 0 0 0 0 0 0 0 0
39 1 21 1 2 -49724448 -74970909 45601834 -104009147 24 7 2 12 10 11 11 3 0 0 24 1 225 46 21 25 22 22 155 345 15
39 1 22 1 3 -163653171 -80392897 -11955692 50753951 94 68 41 71 69 2 2 0 0 0 94 2 447 184 180 4 92 92 1071 40 24
39 1 23 1 2 -148096635 -95466251 23034689 17076485 95 72 47 74 74 2 0 2 0 0 95 2 536 197 193 4 93 93 1113 157 21
39 1 24 1 3 -137788069 -62151391 -18587060 16953412 100 48 27 51 51 1 1 0 0 0 100 0 901 128 126 2 98 98 788 220 48
39 1 25 1 3 -151590872 -70133882 -4954274 24035415 97 64 44 70 70 0 0 0 0 0 97 0 763 178 178 0 95 95 1036 160 31
39 1 26 1 3 -142484225 -50599502 -27880041 20765244 90 53 34 58 55 1 0 1 0 0 90 2 810 147 145 2 88 88 863 112 35
39 1 27 1 2 -134009124 -112607218 27574905 16874561 97 61 42 68 62 0 0 0 0 0 97 2 891 171 171 0 95 95 1004 206 34
39 1 28 1 3 -163103326 -63346421 -6750181 30782847 96 64 45 69 66 0 0 0 0 0 96 0 811 178 178 0 94 94 1032 87 30
39 1 29 1 3 -142618911 -93564475 -5066812 37377284 92 60 34 67 65 1 1 0 0 0 92 0 697 163 161 2 90 90 1010 139 30
40 1 0 1 1 -78827247 45074742 -47732712 -113309151 65 6 3 16 8 3 3 0 1 0 65 4 104 32 25 7 63 63 198 125 57
40 1 1 1 1 -91082476 8781136 -56299954 -57961323 67 10 0 29 14 4 4 0 0 0 66 0 23 47 39 8 65 65 324 106 55
40 1 2 1 1 -108684980 11272150 -44798588 -55826663 66 12 0 27 16 8 8 0 0 0 66 0 24 55 39 16 64 64 337 90 52
40 1 3 1 1 -57446892 -15640 -49240066 -89732854 64 4 2 21 7 0 0 0 0 0 64 4 85 27 27 0 62 62 227 114 58
40 1 4 1 1 -57166408 44643091 -83313587 -99032489 65 3 1 16 4 0 0 0 0 0 65 1 39 20 20 0 63 63 166 120 60
40 1 5 1 1 -55359843 -12095898 -19083791 -108152548 64 9 5 25 12 1 1 0 1 0 64 7 156 42 39 3 62 62 288 302 53
40 1 6 1 1 -73827611 62749445 -80287961 -105038779 64 0 0 12 3 4 4 0 0 0 64 0 0 20 12 8 62 62 134 124 62
40 1 7 1 1 -86934831 67262418 -58153823 -116904948 65 6 3 14 7 4 3 1 1 0 65 3 127 32 23 9 63 63 195 178 57
40 1 8 1 1 -32316148 -11537930 -68195740 -84063109 64 1 0 14 3 0 0 0 0 0 64 1 29 15 15 0 62 62 162 116 61
40 1 9 1 1 -48858818 9088093 -66969536 -89401382 65 5 1 17 10 2 2 0 0 0 65 1 28 27 23 4 63 63 221 96 58
40 1 10 1 1 -51713381 -12776349 -62494556 -66664306 63 10 4 21 11 2 1 1 0 0 63 7 122 39 35 4 61 61 259 102 51
40 1 11 1 1 -62112110 60946665 -96013422 -99657591 64 0 0 0 0 0 0 0 0 0 64 0 0 0 0 0 62 62 43 124 62
40 1 12 1 2 -94857254 -11253255 -2294741 -86248108 64 16 9 24 16 2 1 1 2 0 64 6 185 55 49 6 62 62 338 113 46
40 1 13 1 1 -59273813 40355909 -77218403 -99756188 64 3 1 16 4 4 4 0 0 0 64 1 30 28 20 8 62 62 177 118 59
40 1 14 1 1 -74203260 43867020 -70182115 -95230212 64 3 1 20 5 3 3 0 0 0 64 0 0 30 24 6 62 62 210 114 59
40 1 15 1 1 -78818224 80547266 -90323050 -107916461 64 3 1 3 3 1 1 0 0 0 64 0 11 9 7 2 62 62 69 118 59
40 1 16 1 1 -76946794 37910815 -64887052 -92744720 64 3 1 19 6 3 3 0 0 0 64 0 7 29 23 6 62 62 199 111 59
40 1 17 1 1 -87484478 29764006 -40898123 -98269318 65 6 3 16 8 2 2 0 0 0 65 0 47 29 25 4 63 63 214 112 57
40 1 18 1 1 -53924530 -5540197 -42678974 -93128270 64 9 3 25 11 2 2 0 1 0 64 3 53 42 37 5 62 62 286 113 53
40 1 19 1 1 -74439549 17382192 -24971614 -113372853 65 7 2 14 7 5 4 1 1 0 65 3 140 34 23 11 63 63 218 242 56
40 1 20 1 1 -26770850 53154363 -112714085 -107384976 64 1 0 4 1 8 7 1 0 0 64 1 31 21 5 16 62 62 71 122 61
40 1 21 1 2 -64743992 -43305753 -14417956 -70962128 65 12 7 31 15 0 0 0 1 0 65 5 92 51 50 1 63 63 342 206 51
40 1 22 1 1 -42943798 -6967302 -57489682 -87470528 65 6 1 19 10 2 2 0 0 0 65 2 27 30 26 4 63 63 232 64 57
40 1 23 1 1 -65928059 57894706 -85478694 -102240191 64 0 0 8 0 2 2 0 0 0 64 0 0 12 8 4 62 62 116 80 62
40 1 24 1 1 -25097099 -19400286 -58416881 -91265698 67 7 4 26 11 5 4 1 0 0 67 3 45 47 37 10 65 65 321 222 58
40 1 25 1 1 -64185564 36047534 -80121390 -88965571 66 0 0 15 1 0 0 0 0 0 66 0 0 15 15 0 64 64 137 99 64
40 1 26 1 1 -125372346 5746634 -26441115 -51807761 77 20 2 38 21 14 12 2 1 0 77 0 0 89 60 29 75 75 461 186 55
40 1 27 1 1 -73844737 -21232695 -45651618 -54183760 69 13 7 32 17 6 6 0 0 0 69 2 50 64 52 12 67 67 399 98 54
40 1 28 1 1 -72950081 58289478 -71836330 -108952740 71 0 0 20 1 6 4 2 0 0 71 0 0 32 20 12 69 69 203 262 69
40 1 29 1 1 -82225131 42805476 -41685011 -113992303 72 1 0 18 4 8 5 3 0 0 72 0 26 35 19 16 70 70 228 284 69
42 1 0 1 3 -122250745 -57899002 -26936296 7548943 82 36 16 52 40 23 23 0 0 0 81 0 0 150 104 46 79 80 692 125 43
42 1 1 1 1 -101586414 -23675201 -32243887 -39302243 74 20 5 38 25 15 15 0 0 0 74 0 0 93 63 30 72 72 486 144 52
42 1 2 1 1 -120081593 6944503 -46158061 -41054943 74 18 5 27 23 10 10 1 0 0 73 0 0 71 50 21 71 72 385 99 53
42 1 3 1 1 -96725304 5637082 -60230678 -44321857 69 12 5 49 24 12 12 0 0 0 69 0 0 90 66 24 67 67 524 113 55
42 1 4 1 1 -124319509 -15379844 -16124380 -43945497 75 22 5 33 23 16 16 0 1 0 75 0 0 93 60 33 73 73 460 173 50
42 1 5 1 1 -104571306 74260972 -62194951 -104768467 70 3 0 8 6 1 1 0 1 0 70 0 0 14 11 3 68 68 125 106 65
42 1 6 1 1 -90384545 21305700 -35903199 -92765638 68 1 0 12 3 0 0 0 0 0 68 0 0 13 13 0 66 66 163 90 65
42 1 7 1 1 -101799794 21260081 -15583405 -101800681 68 0 0 4 0 1 1 0 0 0 68 0 0 6 4 2 66 66 106 125 66
42 1 8 1 1 -90082954 23326180 -15937161 -113325559 69 5 1 24 7 4 4 0 1 0 69 1 39 39 30 9 67 67 270 248 62
42 1 9 1 1 -111817597 68655320 -41013379 -112262148 68 6 2 13 7 3 3 1 0 0 68 0 0 28 21 7 66 66 165 126 60
42 1 10 1 1 -105941528 45337705 -50377193 -85770429 67 6 0 23 11 6 5 1 0 0 67 0 0 41 29 12 65 65 270 105 59
42 1 11 1 1 -79535079 68152095 -78661966 -106952172 69 4 0 8 4 5 4 1 0 0 69 0 0 22 12 10 67 67 140 145 63
42 1 12 1 1 -87672030 59256568 -67095349 -101116921 71 7 3 11 8 6 6 1 0 0 71 0 0 34 21 13 69 69 190 136 62
42 1 13 1 1 -67039041 54620280 -88468303 -96103958 67 1 0 4 1 3 3 0 0 0 67 0 0 11 5 6 65 65 71 102 64
42 1 14 1 1 -88650379 52540703 -74483065 -88228500 67 2 0 2 2 0 0 0 0 0 67 0 0 4 4 0 65 65 63 0 63
42 1 15 1 1 -77796349 39440503 -70013355 -89713931 67 3 0 4 3 1 1 0 0 0 67 0 0 9 7 2 65 65 106 39 62
42 1 16 1 1 -108604710 88362958 -64427798 -111913282 70 8 1 9 8 3 3 1 1 0 70 0 0 26 18 8 68 68 158 152 60
42 1 17 1 1 -88256125 39445311 -69389767 -79774528 68 5 1 35 13 9 9 0 0 0 67 0 0 59 41 18 66 66 365 122 61
42 1 18 1 1 -94647999 40864066 -58029031 -85772734 69 7 1 16 7 9 8 1 0 0 69 0 0 42 24 18 67 67 216 113 60
42 1 19 1 1 -51452492 40622710 -64471923 -120678723 67 3 0 7 3 4 4 1 0 0 67 0 0 19 10 9 65 65 107 406 62
42 1 20 1 1 -87522198 32878842 -59466581 -82757693 66 5 1 34 10 8 8 1 0 0 66 0 0 57 40 17 64 64 350 111 59
42 1 21 1 1 -72684221 60393221 -80737464 -103728235 67 2 0 9 2 3 3 0 0 0 67 0 0 17 11 6 65 65 122 143 63
42 1 22 1 1 -101808639 45035372 -47149894 -92212992 73 7 1 31 11 8 8 0 1 0 72 0 0 56 39 17 71 71 342 188 64
42 1 23 1 1 -53431854 -29208267 -42027374 -65852920 74 13 6 48 22 22 17 5 4 0 74 3 28 115 67 48 72 72 493 282 59
42 1 24 1 1 -74403941 45626209 -66812164 -100845331 69 0 0 18 2 3 3 0 0 0 69 0 0 24 18 6 67 67 200 137 67
42 1 25 1 1 -79596654 39962558 -58451205 -98850455 68 0 0 13 0 4 4 0 0 0 68 0 0 21 13 8 66 66 143 130 66
42 1 26 1 1 -84651200 53948451 -62412100 -103696646 67 2 0 14 5 3 2 1 0 0 67 0 0 22 16 6 65 65 165 178 63
42 1 27 1 1 -103299372 98180281 -74172926 -116444870 69 6 1 6 6 1 1 1 1 0 69 0 0 17 13 4 67 67 109 204 61
42 1 28 1 1 -67448390 25906717 -63733746 -91849559 66 0 0 19 2 5 5 0 0 0 66 0 0 29 19 10 64 64 193 112 64
42 1 29 1 1 -79099956 33876430 -58287131 -93211766 66 2 1 20 5 2 2 1 0 0 66 0 0 28 23 5 64 64 234 115 62
43 1 0 1 1 -74118373 32974342 -85573237 -69761838 98 2 1 32 5 3 3 0 0 0 98 0 0 41 35 6 96 96 385 198 93
43 1 1 1 1 -99460812 27094295 -69279233 -55482511 98 8 3 40 12 8 8 0 0 0 98 0 0 67 51 16 96 96 471 176 88
43 1 2 1 1 -89790629 38153994 -80334996 -66763491 98 4 0 29 6 7 7 0 0 0 98 0 0 47 33 14 96 96 341 251 92
43 1 3 1 1 -82988512 39813725 -81562922 -73318076 95 2 0 23 3 5 5 0 0 0 94 0 0 35 25 10 93 93 296 251 90
43 1 4 1 1 -76659756 54681554 -98182936 -74163000 97 0 0 38 3 3 3 0 0 0 97 0 0 44 38 6 95 95 391 260 95
43 1 5 1 1 -81012967 44830740 -85793912 -73772023 98 2 0 36 5 3 3 0 0 0 98 0 0 44 38 6 96 96 389 276 95
43 1 6 1 1 -96255683 28412223 -59611118 -69225345 98 12 7 35 13 10 10 0 0 0 97 0 0 74 54 20 95 96 466 201 83
43 1 7 1 1 -98520080 -4871671 -42547286 -53052701 81 16 2 26 16 3 3 0 0 0 81 0 0 50 44 6 79 79 375 189 63
43 1 8 1 1 -76228903 65023140 -86756172 -97706545 87 5 1 23 7 9 8 1 0 0 87 0 1 47 29 18 85 85 241 417 80
43 1 9 1 1 -72950399 52017402 -92934999 -82530716 96 6 1 26 7 3 3 0 0 0 96 0 0 39 33 6 94 94 322 251 88
43 1 10 1 1 -82150687 24286622 -59962291 -78789198 95 8 3 26 9 3 3 0 0 0 95 0 0 43 37 6 93 93 357 283 85
43 1 11 1 1 -73120125 13249571 -55424118 -80902900 97 8 4 26 10 4 4 0 0 0 97 0 0 46 38 8 95 95 351 363 87
43 1 12 1 2 -61364322 -58279099 937704 -72431013 32 24 9 26 23 3 3 0 0 0 32 0 0 65 59 6 30 30 363 3 5
43 1 13 1 2 -63428290 -71977776 -24744531 -30762444 22 18 3 15 15 0 0 0 0 0 21 0 0 36 36 0 19 20 229 1 1
43 1 14 1 2 -73786108 -50431990 -15420208 -49699182 29 21 8 21 20 15 15 0 0 0 29 0 0 80 50 30 27 27 302 12 6
43 1 15 1 1 -78686762 42234252 -67523881 -94144261 90 7 2 28 7 24 24 0 0 0 90 0 0 85 37 48 88 88 337 252 81
43 1 16 1 1 -114279567 113237 -47845091 -38281432 102 16 7 34 18 8 8 0 0 0 102 0 0 73 57 16 100 100 464 225 84
43 1 17 1 2 -116095382 -39685030 -7793661 -33007529 80 28 19 38 28 4 3 1 0 0 80 0 0 93 85 8 78 78 552 146 50
43 1 18 1 2 -116343403 -54774844 11017726 -35834748 69 27 16 38 27 17 17 0 0 0 69 0 0 115 81 34 67 67 510 84 40
43 1 19 1 2 -115649956 -17103428 -13134587 -52677766 72 24 16 26 24 2 2 0 0 0 72 0 0 70 66 4 70 70 398 85 46
43 1 20 1 2 -94753737 -50237636 -23119016 -25640123 44 29 15 30 29 5 5 0 0 0 44 0 0 84 74 10 42 42 444 23 13
43 1 21 1 2 -75542452 -68980738 -14745137 -33227332 31 21 8 23 22 0 0 0 0 0 30 0 0 52 52 0 28 29 337 7 7
43 1 22 1 2 -84958874 -68062381 -7519301 -32913852 38 27 16 28 28 1 1 0 0 0 38 0 0 73 71 2 36 36 427 9 9
43 1 23 1 2 -92583814 -58880188 -17343110 -25510475 42 29 14 29 29 2 2 0 0 0 42 0 0 76 72 4 40 40 441 11 11
43 1 24 1 1 -89993424 -4482057 -21379485 -78830242 47 19 9 18 17 2 2 0 0 0 46 0 0 50 46 4 45 45 261 31 25
43 1 25 1 2 -96480561 -37742858 -19741237 -40147171 47 26 12 27 26 4 4 0 0 0 47 0 0 73 65 8 45 45 404 38 19
43 1 26 1 2 -106094351 -32020105 -22918307 -32848516 62 29 21 29 29 2 2 0 0 0 62 0 0 83 79 4 60 60 442 60 31
43 1 27 1 3 -104039664 -51625642 -19822237 -19187608 57 33 24 34 34 4 4 0 0 0 56 0 0 99 91 8 54 55 517 39 21
43 1 28 1 3 -97412664 -59099577 -32209759 -6626417 44 28 9 29 28 3 3 0 0 0 44 0 0 72 66 6 42 42 435 23 14
43 1 29 1 1 -94902972 -202127 -17979764 -82798055 52 16 10 15 15 1 1 0 0 0 52 0 0 43 41 2 50 50 239 68 34
46 1 0 1 0 -7043584 -43196365 -51128307 -93641013 95 0 0 12 0 1 1 0 0 0 94 185 4226 14 12 2 93 93 193 1097 92
46 1 1 1 1 -9440023 28140423 -98993707 -113648849 93 3 0 10 3 10 6 4 0 0 93 147 3627 33 13 20 91 91 127 1232 88
46 1 2 1 0 -17636312 -43399242 -50396648 -84622110 99 0 0 22 0 4 2 2 0 0 99 191 4276 30 22 8 97 97 259 1218 97
46 1 3 1 0 9277946 -42301445 -81701353 -79955559 99 0 0 16 0 2 2 0 0 0 98 197 4378 20 16 4 97 97 221 1125 96
46 1 4 1 0 -20661941 -50920222 -45069479 -80328417 103 1 0 20 1 4 3 1 1 0 102 198 4442 30 21 9 100 101 265 1249 99
46 1 5 1 0 -353652 -40611504 -58253030 -98703179 81 3 1 4 3 1 1 0 0 0 81 92 2793 10 8 2 79 79 120 900 76
46 1 6 1 1 -14096237 24077414 -108214420 -98427324 98 0 0 6 0 6 4 4 0 0 97 138 4228 20 6 14 96 96 83 1257 95
46 1 7 1 0 18363575 8028067 -117120415 -104530533 96 0 0 8 0 4 3 3 0 0 95 189 5539 18 8 10 93 94 110 1488 93
46 1 8 1 1 -39045778 568416 -54740926 -105807417 92 6 1 13 8 7 6 2 1 0 92 104 3022 36 20 16 90 90 206 1200 84
46 1 9 1 1 -101863821 8471680 -13979360 -94375775 103 15 5 22 18 17 10 7 2 0 103 34 2675 78 42 36 101 101 379 1084 86
46 1 10 1 1 -105490895 24635754 -13304593 -107261053 91 11 2 18 13 17 16 4 3 0 91 10 2202 71 31 40 89 89 294 907 78
46 1 11 1 1 -16647860 58815387 -114141499 -121827287 96 5 2 10 5 14 3 12 0 0 96 36 2389 46 17 29 94 94 175 1540 89
46 1 12 1 2 -82127561 -27530559 -5174988 -84657760 98 15 6 35 20 36 31 9 4 0 98 76 2494 136 56 80 96 96 415 1196 81
46 1 13 1 2 -96427067 -28827155 25814191 -99222298 92 20 11 29 22 25 22 8 4 0 92 63 2727 119 60 59 90 90 430 1044 70
46 1 14 1 1 -88484608 26458415 -34011766 -100341606 99 3 1 22 4 4 3 1 3 0 99 100 3425 37 26 11 97 97 305 1069 94
46 1 15 1 0 -26666630 -36829005 -30080605 -102382275 95 0 0 21 1 1 1 0 1 0 95 131 3225 24 21 3 93 93 271 1113 93
46 1 16 1 0 -2397567 -27766466 -53160768 -112152900 95 1 0 18 1 4 2 2 0 0 95 103 3127 27 19 8 93 93 272 1466 92
46 1 17 1 2 -115726059 -40834258 28796639 -71941116 98 17 5 28 18 15 14 4 17 1 98 135 3817 100 50 50 96 96 389 1142 79
46 1 18 1 1 -73069842 59997418 -81678329 -100871729 93 1 0 4 1 6 4 2 10 0 93 183 4742 27 5 22 91 91 82 1237 90
46 1 19 1 1 -79794634 72531385 -83571459 -103945612 96 7 2 12 7 11 10 5 10 0 96 160 4723 57 21 36 94 94 172 1262 87
46 1 20 1 2 -84907587 -33081278 6546193 -86288904 97 2 1 22 3 5 5 4 9 1 96 179 4633 48 25 23 95 95 284 1285 92
46 1 21 1 1 -52784816 -11142791 -39128396 -92641995 97 1 0 26 1 6 5 1 4 0 97 191 4694 43 27 16 95 95 286 1171 94
46 1 22 1 1 -45891587 5526833 -54239809 -99681451 98 0 0 10 0 4 4 0 3 0 97 195 4582 21 10 11 96 96 181 1140 95
46 1 23 1 1 -48986714 -2037343 -39198135 -103714257 96 0 0 16 0 6 3 3 4 0 96 187 4382 32 16 16 94 94 222 1193 94
46 1 24 1 1 -51358245 -3543003 -39216986 -100096964 93 3 0 15 3 2 2 0 9 0 92 151 3965 31 18 13 91 91 254 1256 88
46 1 25 1 1 -73575936 21402517 -37332818 -108166723 93 7 3 18 8 10 7 5 7 0 93 162 4843 57 28 29 91 91 249 1543 84
46 1 26 1 1 -73580041 27885706 -43030674 -107150233 96 9 4 18 10 22 21 1 12 0 96 143 3617 87 31 56 94 94 256 1218 85
46 1 27 1 1 -103501014 69807046 -54957583 -109827263 100 5 1 17 5 17 16 3 7 0 100 64 2799 67 23 44 98 98 230 1085 93
46 1 28 1 0 -16123630 -31586343 -46894319 -101197246 95 0 0 22 0 1 1 0 1 0 95 124 3226 25 22 3 93 93 256 1164 93
46 1 29 1 1 -28395541 44150702 -103686089 -108181128 95 1 0 5 1 4 3 1 2 0 95 135 3220 16 6 10 93 93 70 1366 92
49 1 0 1 2 -121278356 -61962203 -7173993 -8634602 98 43 25 64 53 0 0 0 0 0 98 0 13 132 132 0 96 96 839 319 52
49 1 1 1 3 -136182230 -13330631 -82613438 28538108 105 37 3 71 53 7 7 0 0 0 105 0 0 125 111 14 103 103 865 395 66
49 1 2 1 2 -97235284 -66738076 -1237472 -30205977 57 34 18 39 36 3 3 0 0 0 57 0 0 97 91 6 55 55 572 125 21
49 1 3 1 3 -106558889 -44416503 -86447512 36046268 108 35 6 76 54 6 6 1 0 0 107 1 32 130 117 13 106 106 918 460 70
49 1 4 1 1 -124835184 18675440 -93319310 -621786 110 20 2 62 37 0 0 0 0 0 110 0 14 84 84 0 108 108 714 526 88
49 1 5 1 3 -117593892 -1781057 -91100050 11501559 112 28 2 79 39 0 0 0 0 0 112 0 0 109 109 0 110 110 859 488 82
49 1 6 1 3 -123181626 -32723577 -74371364 28708952 112 29 0 71 44 0 0 0 0 0 111 0 0 100 100 0 110 110 830 473 79
49 1 7 1 3 -127805814 1421696 -76778574 1972411 111 25 6 59 42 0 0 0 0 0 111 0 0 90 90 0 109 109 711 495 83
49 1 8 1 3 -126320226 -6918692 -97857415 30028251 113 31 0 72 49 0 0 0 0 0 113 0 0 103 103 0 111 111 840 469 79
49 1 9 1 3 -134818249 -27104410 -70109385 29916338 113 38 4 66 46 0 0 0 0 0 113 0 0 108 108 0 111 111 800 438 73
49 1 10 1 3 -126211110 -48710646 -70445930 42478250 114 37 0 81 45 0 0 0 0 0 113 0 0 118 118 0 111 112 934 438 73
49 1 11 1 3 -64488530 -44618596 -137928166 45987688 114 42 3 77 51 1 1 1 0 0 114 1 7 125 122 3 112 112 890 418 70
49 1 12 1 3 -102393038 -50967314 -83903636 36580672 115 39 2 81 46 2 2 0 0 0 115 1 23 126 122 4 113 113 915 450 75
49 1 13 1 3 -140694911 -26719331 -70926640 37787542 111 45 15 79 59 1 1 0 0 0 111 0 9 141 139 2 109 109 947 363 61
49 1 14 1 3 -141198240 -45493762 -54719563 39092832 108 39 12 73 54 1 1 0 0 0 108 0 14 126 124 2 106 106 912 401 67
49 1 15 1 3 -129588877 -44300947 -81122985 53016446 109 42 8 80 57 0 0 0 0 0 109 0 0 130 130 0 107 107 981 437 65
49 1 16 1 3 -142243133 -37741620 -49784484 28842473 109 42 18 75 54 0 0 0 0 0 109 0 0 135 135 0 107 107 939 380 64
49 1 17 1 3 -71475825 -87578397 -83796565 44595175 93 43 16 72 58 3 3 0 0 0 93 1 11 137 131 6 91 91 921 332 47
49 1 18 1 3 -101167990 -36591581 -59463454 -3198862 111 22 1 62 34 0 0 0 0 0 111 0 0 85 85 0 109 109 721 609 87
49 1 19 1 3 -116049419 -70773887 -41496891 29556823 100 41 14 72 50 0 0 0 0 0 100 0 0 127 127 0 98 98 885 365 57
49 1 20 1 3 -121012552 -39664263 -57754972 15293006 110 32 3 71 43 0 0 0 0 0 110 0 3 106 106 0 108 108 847 511 75
49 1 21 1 3 -112791407 -58625009 -40502555 14073944 92 42 22 72 57 3 3 0 0 0 92 0 17 142 136 6 90 90 914 432 48
49 1 22 1 3 -111927103 -42489649 -50355098 2276734 113 27 2 63 36 1 1 0 0 0 113 0 0 94 92 2 111 111 730 608 83
49 1 23 1 3 -119882119 -66997808 -31199088 20187550 94 44 23 67 51 4 4 0 0 0 94 0 0 142 134 8 92 92 860 288 48
49 1 24 1 3 -107911355 -17235845 -83786241 8500741 112 25 1 67 44 1 1 0 0 0 112 0 0 95 93 2 110 110 753 583 85
49 1 25 1 3 -97986867 -31102135 -45207252 -26714855 113 23 2 59 25 1 1 0 0 0 113 0 55 86 84 2 111 111 651 606 88
49 1 26 1 1 -88978133 20398196 -87009733 -43827885 117 8 0 46 14 0 0 0 0 0 116 0 0 54 54 0 115 115 475 638 107
49 1 27 1 1 -100415520 22799334 -81602150 -40754355 116 15 1 55 25 3 3 0 0 0 116 0 6 77 71 6 114 114 580 615 99
49 1 28 1 3 -121418724 -12566400 -87966716 21493486 115 33 0 78 43 0 0 0 0 0 115 0 0 111 111 0 113 113 845 469 79
49 1 29 1 3 -147026330 -25514645 -101937398 68735726 110 46 0 80 64 0 0 0 0 0 110 0 14 126 126 0 108 108 1010 356 62
52 1 0 1 1 -94910949 90574912 -99369690 -92431169 76 6 3 8 6 5 5 0 0 0 76 0 57 27 17 10 74 74 120 135 68
52 1 1 1 1 -80947099 24916076 -64060764 -76070354 75 3 1 35 6 4 4 0 0 0 75 0 22 47 39 8 73 73 343 137 70
52 1 2 1 1 -107003431 101761279 -97021292 -95070615 75 3 1 7 4 6 6 0 0 0 75 0 135 23 11 12 73 73 108 136 70
52 1 3 1 1 -87775837 39587417 -72848616 -75699664 76 3 1 31 12 4 4 0 0 0 76 0 185 43 35 8 74 74 342 142 71
52 1 4 1 1 -90113447 13923229 -43538032 -76214941 75 6 3 40 7 1 1 0 0 0 75 2 318 51 49 2 73 73 423 127 67
52 1 5 1 1 -101415462 59911611 -86358568 -70021220 74 8 0 29 17 13 13 0 0 0 74 0 485 63 37 26 72 72 325 127 64
52 1 6 1 1 -82696830 32089401 -67099030 -78604493 76 4 1 29 11 0 0 0 0 0 75 2 441 34 34 0 74 74 319 127 69
52 1 7 1 1 -94345879 59057163 -75177505 -87276930 77 10 5 12 10 2 2 0 0 0 76 2 401 31 27 4 74 75 189 97 64
52 1 8 1 1 -119689814 64121211 -60364736 -81238278 76 13 8 14 13 3 3 0 0 0 76 5 553 41 35 6 74 74 224 122 61
52 1 9 1 1 -97765836 43227657 -56759452 -85552396 76 6 3 26 14 2 2 0 0 0 76 2 536 39 35 4 74 74 315 136 68
52 1 10 1 1 -72819698 23624228 -62692636 -83780508 79 10 6 24 14 3 3 0 0 0 79 2 128 46 40 6 77 77 315 134 67
52 1 11 1 1 -102871310 53663129 -71338861 -76161469 81 7 1 36 16 11 10 1 0 0 81 0 258 66 44 22 79 79 374 235 72
52 1 12 1 1 -88275078 56326413 -75180628 -88718255 81 9 5 27 15 4 4 0 0 0 81 0 104 49 41 8 79 79 322 205 70
52 1 13 1 1 -84662272 82820929 -107241532 -87286196 78 0 0 18 3 7 7 0 0 0 78 0 173 32 18 14 76 76 170 142 76
52 1 14 1 1 -108747818 43743247 -63944825 -68047216 78 11 5 38 17 4 4 0 0 0 78 2 201 62 54 8 76 76 386 129 65
52 1 15 1 1 -92571623 88241907 -101409416 -91581052 77 5 1 11 6 10 10 0 0 0 77 0 488 37 17 20 75 75 139 140 70
52 1 16 1 1 -91846772 72829744 -85559321 -91913709 78 7 3 10 8 3 3 0 0 0 78 2 526 26 20 6 76 76 156 135 70
52 1 17 1 1 -84753949 66199544 -88367625 -89540719 77 3 1 18 6 3 3 0 0 0 77 0 487 28 22 6 75 75 212 144 72
52 1 18 1 1 -97956512 33681747 -52993653 -78377302 77 6 3 37 15 5 5 0 0 0 76 0 368 56 46 10 74 75 394 130 65
52 1 19 1 1 -74359928 56339028 -88215007 -90138175 76 2 0 18 4 2 2 0 0 0 76 0 253 24 20 4 74 74 213 144 72
52 1 20 1 1 -72807901 54030701 -85848277 -91334589 77 9 5 19 10 6 6 0 0 0 77 6 314 45 33 12 75 75 245 132 66
52 1 21 1 1 -85804020 93534661 -106357021 -98057679 78 4 1 9 5 7 7 0 0 0 78 0 609 28 14 14 76 76 137 178 72
52 1 22 1 1 -105659897 41389458 -78370550 -54709538 78 12 1 28 17 8 8 0 0 0 78 0 579 57 41 16 76 76 330 128 64
52 1 23 1 1 -124124296 -8744243 -39192136 -25651619 80 22 9 47 30 24 24 0 0 0 80 2 533 126 78 48 78 78 570 116 56
52 1 24 1 1 -62749327 -15609607 -30524919 -90358766 80 4 2 11 5 13 13 0 0 0 80 1 11 43 17 26 78 78 214 164 74
52 1 25 1 1 -76004738 39433154 -62978828 -96373730 77 3 1 4 3 0 0 0 0 0 77 1 18 8 8 0 75 75 95 186 72
52 1 26 1 1 -53541352 -14751812 -43529756 -86332155 78 6 3 17 6 2 2 0 0 0 78 3 31 30 26 4 76 76 248 140 70
52 1 27 1 1 -48891301 -27489343 -36145603 -85366884 79 5 3 8 6 0 0 0 0 0 79 3 33 16 16 0 77 77 204 144 72
52 1 28 1 1 -89684691 67432040 -76555831 -97948694 79 6 1 9 6 3 3 0 0 0 79 1 16 22 16 6 77 77 130 210 71
52 1 29 1 2 -66642608 -28700096 -13207768 -90760102 79 6 3 10 6 1 1 0 0 0 79 2 28 21 19 2 77 77 196 196 71
54 1 0 1 1 -81267055 75547986 -102195757 -90219809 81 1 0 3 3 0 0 0 0 0 81 0 25 4 4 0 79 79 78 292 78
54 1 1 1 1 -57812836 50790670 -112919260 -76228790 82 1 0 3 3 0 0 0 0 0 82 2 42 4 4 0 80 80 81 118 79
54 1 2 1 1 -22515694 34489648 -131952833 -76477572 80 2 0 6 3 1 1 0 0 0 80 2 20 10 8 2 78 78 94 54 76
54 1 3 1 1 -91422412 85302277 -107683008 -83635256 83 6 3 6 6 1 1 0 0 0 82 0 51 17 15 2 80 81 124 0 74
54 1 4 1 1 -78964901 58865486 -89704646 -85910983 82 10 4 11 11 1 1 0 0 0 82 2 80 27 25 2 80 80 188 87 70
54 1 5 1 1 -79663698 71714721 -111487360 -78161265 81 0 0 0 0 0 0 0 0 0 80 0 48 0 0 0 79 79 46 53 79
54 1 6 1 1 -110113173 53837460 -61028001 -81201617 81 9 4 12 10 2 2 0 0 0 81 2 216 29 25 4 79 79 196 29 70
54 1 7 1 1 -83276665 107062006 -123817756 -96536401 85 2 0 8 4 1 1 0 0 0 85 0 9 12 10 2 83 83 103 229 81
54 1 8 1 1 -73477395 92031765 -122827621 -91607189 85 1 0 3 1 0 0 0 0 0 85 0 9 4 4 0 83 83 47 168 82
54 1 9 1 1 -67512704 45340084 -102578506 -70748448 85 7 3 8 7 0 0 0 0 0 85 4 86 18 18 0 83 83 143 73 76
54 1 10 1 1 -82912582 82840712 -121403241 -76145355 83 2 0 2 2 0 0 0 0 0 83 0 84 4 4 0 81 81 64 62 79
54 1 11 1 1 -89673686 85681464 -112209890 -80991077 81 1 0 3 3 0 0 0 0 0 81 0 7 4 4 0 79 79 67 77 78
54 1 12 1 1 -79817448 71446225 -112616034 -76566563 85 0 0 2 0 0 0 0 0 0 85 0 35 2 2 0 83 83 61 121 83
54 1 13 1 1 -80018606 85411828 -110477608 -91650063 84 6 3 6 6 0 0 0 0 0 84 0 2 15 15 0 82 82 126 220 76
54 1 14 1 1 -45304017 23299729 -93879802 -81383556 85 6 3 8 6 0 0 0 0 0 85 1 27 17 17 0 83 83 161 261 77
54 1 15 1 1 -49300698 9920658 -85994518 -72573991 84 11 2 17 12 2 2 0 0 0 84 3 46 34 30 4 82 82 236 228 71
54 1 16 1 1 -91937301 104930241 -117785021 -90015761 90 8 4 8 8 0 0 0 0 0 90 0 25 20 20 0 88 88 134 214 80
54 1 17 1 1 -91154038 60885243 -73420439 -93298528 81 7 1 11 8 1 1 0 0 0 81 0 0 21 19 2 79 79 174 206 72
54 1 18 1 1 -59397613 7496943 -74980731 -71094016 77 4 1 6 4 0 0 0 0 0 77 1 22 11 11 0 75 75 136 71 71
54 1 19 1 1 -90947704 71553051 -94201858 -83674148 77 3 1 3 3 0 0 0 0 0 77 0 4 7 7 0 75 75 89 72 72
54 1 20 1 1 -43716748 34273415 -105443428 -81435710 77 4 2 7 5 1 1 0 0 0 77 2 27 15 13 2 75 75 123 70 71
54 1 21 1 1 -38188022 -510688 -85373867 -71911818 78 8 3 14 9 0 0 0 0 0 78 3 52 25 25 0 76 76 194 63 68
54 1 22 1 1 -91188784 50891553 -81029805 -77339914 77 4 1 8 5 0 0 0 0 0 77 0 9 13 13 0 75 75 138 67 71
54 1 23 1 1 -82003079 57120118 -92206889 -81301179 74 1 0 3 2 0 0 0 0 0 74 0 0 4 4 0 72 72 78 69 71
54 1 24 1 1 -74996810 68181471 -106984289 -83646271 75 0 0 0 0 0 0 0 0 0 75 0 0 0 0 0 73 73 37 72 73
54 1 25 1 1 -85675022 69608035 -92488846 -88459970 77 3 1 5 4 1 1 0 0 0 77 0 0 11 9 2 75 75 98 72 72
54 1 26 1 1 -91409364 79123417 -100938820 -83846272 77 3 1 5 4 0 0 0 0 0 77 0 0 9 9 0 75 75 93 72 72
54 1 27 1 1 -45877193 32587161 -104696406 -79204081 79 2 0 3 2 0 0 0 0 0 79 1 29 5 5 0 77 77 80 150 75
54 1 28 1 1 -69264525 83197337 -116503910 -93699493 79 0 0 0 0 0 0 0 0 0 79 0 0 0 0 0 77 77 36 155 77
54 1 29 1 1 -79000989 85347295 -114363427 -89668179 82 0 0 0 0 0 0 0 0 0 82 0 0 0 0 0 80 80 33 160 80
56 1 0 1 0 4699586 -18367601 -97358390 -88974523 102 4 0 10 4 12 7 9 1 0 102 197 5651 43 14 29 100 100 181 2246 96
56 1 1 1 0 21818663 -27066468 -92596976 -98507075 98 2 0 3 2 7 0 7 0 0 98 195 5211 19 5 14 96 96 137 1627 94
56 1 2 1 1 -3271 664868 -86508888 -115057693 99 5 0 7 5 11 5 7 1 0 99 197 5799 36 12 24 97 97 150 2473 92
56 1 3 1 1 -28501458 83605727 -125244774 -125466463 101 6 3 7 7 21 12 15 4 0 100 199 5647 68 16 52 99 99 119 2264 92
56 1 4 1 1 9076000 63384031 -145785967 -117890423 98 2 0 5 3 21 0 21 0 0 98 195 5637 49 7 42 96 96 78 2312 94
56 1 5 1 1 5775959 11801872 -99260217 -112187396 94 9 4 13 9 15 2 15 0 0 94 189 5472 58 26 32 92 92 205 2016 83
56 1 6 1 0 10932678 -36676196 -65640656 -105701796 103 2 0 6 2 26 11 19 1 0 103 199 5332 65 8 57 101 101 164 2300 99
56 1 7 1 1 4707910 59446811 -144311802 -118465109 104 2 1 3 2 19 14 13 1 0 104 201 5668 53 6 47 102 102 52 2666 100
56 1 8 1 1 -25738647 37799201 -112134768 -95551192 97 10 3 11 10 13 3 12 1 0 97 197 5500 53 24 29 95 95 189 1825 85
56 1 9 1 0 20528214 18665708 -114175627 -125514502 102 3 0 7 3 10 3 7 0 0 102 201 5917 30 10 20 100 100 104 2990 97
56 1 10 1 1 14601272 46692570 -142240822 -117433070 102 2 0 2 2 7 4 4 0 0 101 200 5715 19 4 15 99 100 48 2247 97
56 1 11 1 0 28420969 -15701193 -100160754 -110956066 103 1 0 7 1 10 2 8 0 0 103 200 5923 28 8 20 101 101 127 2280 100
56 1 12 1 1 -30028726 86579071 -131706207 -120446218 103 4 1 9 4 17 6 11 8 0 103 203 5874 56 14 42 101 101 121 2584 97
56 1 13 1 1 4874076 38406833 -120320956 -120365709 101 2 0 5 2 6 0 6 4 0 101 205 5876 23 7 16 99 99 91 2322 97
56 1 14 1 2 -75534632 -49477911 -2099716 -54701075 67 32 20 32 32 27 6 23 13 0 67 211 5728 153 84 69 65 65 490 1014 33
56 1 15 1 1 4991048 79540019 -140978883 -134058238 101 3 0 5 3 27 0 27 1 0 101 201 5607 63 8 55 99 99 78 2783 96
56 1 16 1 1 3838057 35555880 -100638394 -131343787 102 1 0 7 1 32 6 28 2 0 102 199 5653 76 8 68 100 100 106 2672 99
56 1 17 1 1 -37653887 49658577 -87449662 -113986402 94 9 5 11 9 38 7 32 2 0 94 195 5524 104 25 79 92 92 192 2286 83
56 1 18 1 1 -650958 52370837 -130283834 -119944748 101 3 0 6 3 9 6 3 1 0 101 201 5797 28 9 19 99 99 85 2444 96
56 1 19 1 1 -46831212 84256936 -119636598 -108505592 99 7 0 10 7 24 4 21 9 0 98 203 5719 75 17 58 97 97 165 1975 89
56 1 20 1 1 -322371 46617753 -128254514 -115760370 102 3 0 7 3 18 9 11 1 0 102 196 5655 49 10 39 100 100 107 2662 97
56 1 21 1 1 -2025528 66491221 -131756433 -120036466 97 7 1 11 7 40 3 38 0 0 96 195 5528 100 19 81 95 95 184 2371 87
56 1 22 1 1 -8417726 83606545 -129038208 -134930619 92 4 1 12 5 35 3 33 2 0 91 193 5378 90 17 73 90 90 138 2408 86
56 1 23 1 1 536305 22621398 -90354388 -122996638 100 1 0 12 1 47 6 43 5 0 100 197 5546 114 13 101 98 98 177 3007 97
56 1 24 1 1 21669384 66809045 -129629198 -145101583 101 1 0 8 1 56 2 56 2 0 101 199 5734 125 9 116 99 99 126 3042 98
56 1 25 1 1 -8663946 30733590 -86059586 -130601174 101 4 2 12 6 40 13 30 0 0 101 196 5799 101 18 83 99 99 197 2865 95
56 1 26 1 1 -25554480 77974664 -115681911 -128397524 98 5 0 16 8 32 6 27 3 0 98 195 5718 89 21 68 96 96 187 2502 91
56 1 27 1 1 8607796 22519486 -109159480 -118365565 100 4 3 8 5 18 9 15 0 0 100 195 5796 57 15 42 98 98 164 2424 94
56 1 28 1 1 -14510536 18479707 -66855665 -131377998 97 5 1 12 5 31 5 30 2 0 97 193 5811 86 18 68 95 95 190 2808 90
56 1 29 1 1 -5186013 64533245 -130715655 -125954212 98 3 0 6 5 12 3 9 1 0 98 193 5777 34 9 25 96 96 89 2571 93
58 1 0 1 1 -110592518 165189578 -184290188 -66049173 123 0 0 0 0 0 0 0 0 0 122 0 393 0 0 0 121 121 14 120 120
58 1 1 1 1 -107220913 183196802 -197221209 -72798825 122 0 0 0 0 0 0 0 0 0 122 0 357 0 0 0 120 120 4 120 120
58 1 2 1 1 -111943586 156091584 -177959588 -62634028 123 0 0 0 0 0 0 0 0 0 123 0 274 0 0 0 121 121 19 120 121
58 1 3 1 1 -107359280 184156672 -198148336 -72519363 123 0 0 0 0 0 0 0 0 0 122 0 209 0 0 0 121 121 4 118 120
58 1 4 1 1 -97670153 179459724 -191436591 -85281491 122 0 0 0 0 0 0 0 0 0 121 0 675 0 0 0 120 120 6 385 119
58 1 5 1 1 -101662172 181808945 -193117373 -81998039 122 0 0 0 0 0 0 0 0 0 122 0 1096 0 0 0 120 120 6 254 120
58 1 6 1 1 -107060025 177679690 -192620140 -73463518 122 0 0 0 0 0 0 0 0 0 121 0 1100 0 0 0 119 120 6 225 119
58 1 7 1 1 -108019472 174010486 -190446300 -71307340 123 0 0 0 0 0 0 0 0 0 122 0 1046 0 0 0 121 121 12 230 121
58 1 8 1 1 -108752878 173170936 -189573238 -70691329 122 0 0 0 0 0 0 0 0 0 122 0 1068 0 0 0 120 120 9 200 120
58 1 9 1 1 -110456979 161708629 -181234398 -66875648 122 0 0 0 0 0 0 0 0 0 121 0 1044 0 0 0 120 120 15 193 120
58 1 10 1 1 -108519492 167790832 -186147430 -69376340 122 0 0 0 0 1 1 0 0 0 122 0 910 2 0 2 120 120 12 219 120
58 1 11 1 1 -107753686 172700272 -189305630 -71440449 122 0 0 0 0 0 0 0 0 0 122 0 932 0 0 0 120 120 9 232 120
58 1 12 1 1 -102120952 186115144 -189439956 -89454485 122 0 0 0 0 3 0 3 0 0 122 6 1073 6 0 6 120 120 10 382 120
58 1 13 1 1 -107736186 170630275 -185984609 -73523501 122 0 0 0 0 0 0 0 0 0 122 0 1307 0 0 0 120 120 13 240 120
58 1 14 1 1 -107819251 173858915 -189767273 -72255327 122 0 0 0 0 0 0 0 0 0 121 0 1253 0 0 0 119 120 8 234 119
58 1 15 1 1 -110205358 161402558 -181084351 -67226821 122 0 0 0 0 0 0 0 0 0 122 1 1261 0 0 0 120 120 15 230 120
58 1 16 1 1 -108219509 175951411 -191910649 -71833119 122 0 0 0 0 1 1 0 0 0 122 0 1271 2 0 2 120 120 7 231 120
58 1 17 1 1 -108172390 169451184 -186396817 -71259789 121 0 0 0 0 0 0 0 0 0 121 0 1295 0 0 0 119 119 10 235 119
58 1 18 1 1 -107866561 171357713 -187789505 -71890348 121 0 0 0 0 0 0 0 0 0 121 0 1277 0 0 0 119 119 9 234 119
58 1 19 1 1 -107248260 177227571 -192060642 -73537934 121 0 0 0 0 0 0 0 0 0 121 0 1252 0 0 0 119 119 6 220 119
58 1 20 1 1 -107918561 169391744 -186412149 -71322752 121 0 0 0 0 0 0 0 0 0 121 0 1185 0 0 0 119 119 10 234 119
58 1 21 1 1 -107961786 169435918 -186456723 -71239911 121 0 0 0 0 0 0 0 0 0 121 0 1161 0 0 0 119 119 10 229 119
58 1 22 1 1 -112276824 151121679 -173728593 -63445370 120 2 0 2 2 0 0 0 0 0 120 0 1239 4 4 0 118 118 47 221 116
58 1 23 1 1 -105490969 175807091 -189190646 -77066590 121 0 0 0 0 0 0 0 0 0 120 0 1274 0 0 0 118 119 9 236 118
58 1 24 1 1 -108838969 169578154 -186697090 -70414409 122 0 0 0 0 0 0 0 0 0 122 0 1309 0 0 0 120 120 14 231 120
58 1 25 1 1 -108397165 162232177 -180795333 -69950519 120 0 0 0 0 0 0 0 0 0 120 0 1305 0 0 0 118 118 13 232 118
58 1 26 1 1 -108952837 164859596 -183480679 -69363716 121 0 0 0 0 1 1 0 0 0 121 0 1317 2 0 2 119 119 12 235 119
58 1 27 1 1 -108632146 161484037 -180681205 -69267610 120 0 0 0 0 1 1 0 0 0 120 0 1301 2 0 2 118 118 13 228 118
58 1 28 1 1 -106494894 176816745 -191815145 -74218338 120 0 0 0 0 1 1 0 0 0 120 0 1281 2 0 2 118 118 5 220 118
58 1 29 1 1 -102735959 162485553 -177566829 -78827234 117 2 0 2 2 1 0 1 0 0 117 0 1189 6 4 2 115 115 41 240 113
60 1 0 1 1 -69295161 109961016 -123853316 -119374433 107 1 0 2 1 18 11 18 55 0 107 208 13292 105 3 102 105 105 60 3129 104
60 1 1 1 1 -77188375 148182558 -135832148 -132603898 110 1 0 1 1 28 8 25 50 0 110 216 12950 113 2 111 108 108 33 3081 107
60 1 2 1 1 -90389685 123721196 -125434602 -108926461 110 1 0 1 1 17 12 6 46 0 110 214 11863 83 2 81 108 108 33 2098 107
60 1 3 1 1 -121652254 182051402 -155078757 -99153287 114 1 0 4 2 24 16 12 46 0 114 224 11989 103 5 98 112 112 46 1439 111
60 1 4 1 1 -114975371 107030759 -101619926 -97100104 105 11 0 15 13 19 17 8 74 0 105 230 16882 144 26 118 103 103 212 2208 92
60 1 5 1 1 -113832559 75921925 -69395517 -94719154 99 19 2 20 19 20 15 18 70 0 99 222 16118 164 41 123 97 97 300 1482 78
60 1 6 1 1 -139642442 38009691 -23134321 -68905562 84 29 11 31 29 30 12 30 59 0 84 218 13968 202 71 131 82 82 460 911 53
60 1 7 1 1 -123655328 44135423 -44465055 -73309053 85 22 5 26 23 25 14 18 70 0 85 222 13525 180 53 127 83 83 368 1014 61
60 1 8 1 1 -89787889 136299318 -127161812 -118146023 106 5 0 10 6 24 5 22 70 0 106 217 14560 136 15 121 104 104 134 2952 99
60 1 9 1 1 -86687738 141305794 -121196182 -132077177 101 3 1 3 3 25 15 21 87 0 100 207 14555 155 7 148 98 99 57 2785 95
60 1 10 1 1 -90892822 41217155 -31244602 -112180344 82 17 12 19 17 38 11 34 56 0 82 202 12101 187 48 139 80 80 295 1982 63
60 1 11 1 1 -75932833 98729783 -115684034 -110186894 106 3 0 4 3 20 9 18 92 0 106 206 13676 146 7 139 104 104 87 2927 101
60 1 12 1 1 -68459054 155331643 -149921344 -130766850 109 1 0 3 1 31 9 28 66 0 109 212 11920 138 4 134 107 107 56 3041 106
60 1 13 1 1 -94322124 109509653 -99228878 -110877859 106 7 3 16 9 32 22 18 69 0 106 215 11333 167 26 141 104 104 220 1804 97
60 1 14 1 1 -110576381 152357473 -131737344 -107522429 104 8 5 10 8 24 15 22 67 0 104 230 14357 151 23 128 102 102 149 2283 94
60 1 15 1 1 -108074172 122275324 -96444952 -111011716 80 9 5 11 11 33 9 32 66 0 80 240 15738 165 25 140 78 78 165 1947 69
60 1 16 1 1 -116224764 173617297 -153659568 -99209335 120 4 0 6 6 26 15 20 63 0 119 238 13531 134 10 124 117 118 98 1816 113
60 1 17 1 1 -93113353 116374879 -111706460 -104743949 78 7 2 10 7 32 14 23 99 0 78 255 16332 187 19 168 76 76 128 1816 69
60 1 18 1 1 -95573274 173469918 -180834946 -94537261 135 7 4 12 7 53 31 34 61 0 135 381 17322 202 23 179 133 133 165 3107 126
60 1 19 1 1 -73403524 85313293 -107381289 -107253119 126 1 0 9 1 44 30 21 47 0 125 254 14905 152 10 142 124 124 166 3042 122
60 1 20 1 1 -65443757 83570364 -127275007 -93125603 132 0 0 5 0 36 24 25 82 0 132 386 19820 172 5 167 130 130 149 3116 130
60 1 21 1 1 -88276875 166277335 -150954072 -126290905 128 4 0 5 4 36 17 33 40 0 127 259 13743 135 9 126 126 126 86 3805 121
60 1 22 1 1 -103946763 170804211 -171451319 -93340429 117 8 1 12 8 27 16 22 80 0 117 342 18068 166 21 145 115 115 147 2254 107
60 1 23 1 1 -83062565 120370119 -125029294 -116967424 115 2 0 4 2 25 13 23 100 0 115 224 16504 167 6 161 113 113 70 3487 111
60 1 24 1 1 -67595068 123657550 -131617350 -128048069 115 1 0 6 1 21 11 20 83 0 115 223 14437 142 7 135 113 113 70 3584 112
60 1 25 1 1 -61849748 138655118 -143633069 -134296920 115 1 0 6 2 21 9 20 73 0 115 223 13360 130 7 123 113 113 69 3584 112
60 1 26 1 1 -63134715 140472560 -146985929 -130864980 112 2 0 3 2 20 12 18 76 0 112 217 11959 131 5 126 110 110 52 3431 108
60 1 27 1 1 -85284563 141732480 -126336518 -128416958 113 4 2 6 5 25 12 23 74 0 113 220 12194 146 12 134 111 111 93 3395 107
60 1 28 1 1 -71676178 110788391 -121279298 -119426255 110 3 0 8 4 15 10 14 48 0 110 215 11163 98 11 87 108 108 113 3358 105
60 1 29 1 1 -75203929 116951494 -116596536 -126643699 108 1 0 5 2 19 14 18 30 0 108 209 10279 87 6 81 106 106 77 3075 105
62 1 0 1 1 -81541307 138325458 -158883371 -92921081 102 0 0 1 0 0 0 0 0 0 102 0 21 1 1 0 100 100 24 361 100
62 1 1 1 1 -77294432 46422640 -99457797 -69448576 99 0 0 0 0 0 0 0 0 0 99 0 5 0 0 0 97 97 84 360 97
62 1 2 1 1 -72558227 61538863 -109748133 -77481244 97 0 0 0 0 0 0 0 0 0 97 0 62 0 0 0 95 95 74 379 95
62 1 3 1 1 -87136934 91121234 -103901830 -95904078 93 8 3 9 9 1 1 1 0 0 93 2 238 23 20 3 91 91 151 405 83
62 1 4 1 1 -51764286 60653350 -101285636 -104641135 96 0 0 0 0 1 0 1 0 0 96 0 300 2 0 2 94 94 58 759 94
62 1 5 1 1 -82306823 87393107 -115731221 -86679862 93 6 0 6 6 0 0 0 0 0 93 0 477 12 12 0 91 91 118 421 85
62 1 6 1 1 -70136232 86765564 -120959591 -92854675 97 0 0 0 0 0 0 0 0 0 96 0 492 0 0 0 95 95 33 459 94
62 1 7 1 1 -67930852 106238440 -130306541 -103956403 94 0 0 0 0 0 0 0 0 0 94 0 568 0 0 0 92 92 11 454 92
62 1 8 1 1 -83746841 92987576 -111263939 -95002981 92 6 1 6 6 1 1 0 0 0 92 0 363 15 13 2 90 90 117 403 84
62 1 9 1 1 -71755810 37692280 -90945311 -74816965 96 0 0 0 0 0 0 0 0 0 96 0 325 0 0 0 94 94 71 407 94
62 1 10 1 1 -60519138 60056863 -110079250 -85920375 96 0 0 0 0 0 0 0 0 0 96 0 335 0 0 0 94 94 59 395 94
62 1 11 1 1 -72708169 78391878 -119905131 -82975147 97 0 0 0 0 0 0 0 0 0 97 0 182 0 0 0 95 95 61 380 95
62 1 12 1 1 -70762678 71260690 -116211332 -82117535 95 2 0 2 2 0 0 0 0 0 95 0 266 4 4 0 93 93 72 386 91
62 1 13 1 1 -112225806 7583260 -33856776 -59338223 82 24 15 24 24 0 0 0 0 0 82 0 159 63 63 0 80 80 378 224 56
62 1 14 1 1 -106363285 53634297 -69829777 -74677951 87 16 9 16 16 1 1 0 0 0 87 0 254 43 41 2 85 85 259 276 69
62 1 15 1 1 -67683630 72886193 -116884851 -85693718 97 0 0 0 0 0 0 0 0 0 97 0 497 0 0 0 95 95 50 461 95
62 1 16 1 1 -68518582 94026554 -133573812 -88568145 97 2 0 2 2 0 0 0 0 0 96 2 650 4 4 0 95 95 61 460 93
62 1 17 1 1 -83863688 98930296 -116718716 -95259100 96 6 3 6 6 2 2 1 0 0 96 2 570 20 15 5 94 94 125 434 88
62 1 18 1 1 -71119195 89868342 -119105062 -97021175 96 0 0 0 0 0 0 0 0 0 96 0 513 0 0 0 94 94 24 464 94
62 1 19 1 1 -68758704 90178959 -123266278 -94931692 96 0 0 0 0 0 0 0 0 0 96 0 518 0 0 0 94 94 32 462 94
62 1 20 1 1 -98511296 120373716 -108936239 -108839667 96 3 1 3 3 1 1 1 1 0 96 2 655 11 7 4 94 94 80 451 91
62 1 21 1 1 -75281131 105161454 -124825657 -102124305 96 0 0 0 0 2 2 0 0 0 96 0 481 4 0 4 94 94 18 453 94
62 1 22 1 1 -71720237 90274734 -123875930 -92265787 95 2 0 2 2 0 0 0 0 0 94 0 521 4 4 0 93 93 52 447 90
62 1 23 1 1 -69986470 93803320 -121657356 -99176754 95 0 0 0 0 0 0 0 0 0 95 0 479 0 0 0 93 93 19 465 93
62 1 24 1 1 -93531467 62229367 -88931219 -78150965 92 8 0 8 8 0 0 0 0 0 92 0 491 16 16 0 90 90 151 409 82
62 1 25 1 1 -89642166 103444986 -109328567 -101547560 96 3 1 3 3 1 1 1 0 0 96 2 432 10 7 3 94 94 68 455 91
62 1 26 1 1 -98685668 19352657 -53829329 -64461008 87 18 11 18 18 0 0 0 0 0 87 0 471 47 47 0 85 85 287 335 67
62 1 27 1 1 -87812541 62695619 -85007705 -87734582 90 12 4 12 12 0 0 0 0 0 90 0 476 28 28 0 88 88 206 380 76
62 1 28 1 2 -97804669 -14788825 -14437501 -69943817 69 23 17 23 23 0 0 0 0 0 69 0 455 63 63 0 67 67 357 220 44
62 1 29 1 1 -88233544 57572813 -71618945 -94704799 88 12 9 12 12 0 0 0 0 0 88 0 477 33 33 0 86 86 201 370 74
64 1 0 1 2 -131891715 16447010 28936821 -111642305 84 11 1 27 13 25 17 9 11 1 84 8 1726 101 39 62 82 82 323 1033 71
64 1 1 1 2 -133596655 17178998 24613123 -104561119 85 3 1 38 7 9 8 2 14 1 84 5 707 75 42 33 83 83 386 933 80
64 1 2 1 1 -130628633 62768447 -13266648 -117690460 84 7 0 14 7 14 13 1 6 0 84 6 906 55 21 34 82 82 186 885 75
64 1 3 1 1 -90724206 17970761 -9415464 -115301681 88 0 0 31 7 7 5 2 0 0 87 0 595 45 31 14 86 86 318 977 85
64 1 4 1 1 -79596051 9916475 -19600673 -108032717 86 0 0 36 4 9 9 0 0 0 85 0 118 54 36 18 83 84 341 808 83
64 1 5 1 1 -67698739 5366478 -22696384 -110187178 86 0 0 39 7 5 4 1 0 0 85 0 12 49 39 10 83 84 370 870 83
64 1 6 1 1 -58189671 -7216971 -12841269 -116836509 84 2 0 42 9 7 7 3 0 0 84 2 118 61 44 17 82 82 418 1273 81
64 1 7 1 1 -134688965 39350649 812372 -105753432 86 11 1 25 15 11 8 4 3 0 86 2 1484 63 37 26 84 84 324 884 73
64 1 8 1 1 -131886645 55839478 -5179245 -111507178 82 8 2 35 14 19 10 9 7 0 82 4 1242 90 45 45 80 80 384 825 71
64 1 9 1 2 -146129710 -77645753 55421859 -30237132 93 39 11 58 40 29 26 4 5 0 93 12 982 172 108 64 91 91 738 687 52
64 1 10 1 1 -129002883 25410808 3446887 -99260192 84 8 1 29 12 13 11 2 2 0 84 2 313 66 38 28 82 82 331 797 74
64 1 11 1 1 -107883378 74646248 -40362862 -123951410 82 1 0 14 3 8 8 0 4 0 82 0 790 35 15 20 80 80 156 683 79
64 1 12 1 2 -125204908 -34433530 86099195 -122087969 75 15 6 33 16 22 19 4 11 0 75 2 1124 110 54 56 73 73 398 772 58
64 1 13 1 1 -85312103 64728375 -44458873 -132884059 82 2 0 7 4 18 17 1 3 0 82 8 1124 48 9 39 80 80 129 686 78
64 1 14 1 2 -149483268 22138994 62261599 -132753930 63 9 7 10 9 11 10 2 7 1 63 2 921 56 26 30 61 61 193 416 52
64 1 15 1 1 -112006336 84382246 -27315523 -137279798 80 4 1 21 5 19 13 8 11 0 80 2 998 77 26 51 78 78 218 959 74
64 1 16 1 1 -110579024 59922358 -15051188 -126513500 83 3 0 39 8 17 14 4 16 0 83 0 1111 93 42 51 81 81 368 1026 77
64 1 17 1 1 -118707420 94257665 -48180973 -123003346 85 3 0 17 5 9 8 3 3 0 84 0 42 43 20 23 82 83 202 641 79
64 1 18 1 1 -87839352 38598682 -16872507 -127865883 82 2 0 27 6 9 5 5 3 0 82 2 91 51 29 22 80 80 291 805 78
64 1 19 1 2 -162998553 -44773111 48248941 -41425252 102 33 15 60 36 36 34 5 9 0 102 0 567 192 108 84 100 100 753 607 67
64 1 20 1 2 -144683546 11277106 38568530 -101132536 88 16 8 41 19 19 13 8 10 0 88 4 1198 115 65 50 86 86 486 834 70
64 1 21 1 1 -135030635 59193050 8977295 -123071451 81 12 5 24 16 25 14 16 21 0 81 16 2011 117 41 76 79 79 319 891 67
64 1 22 1 1 -126328471 90732581 -47629339 -109050916 81 3 0 18 3 15 8 8 11 0 80 2 799 63 21 42 79 79 205 499 75
64 1 23 1 2 -151110084 20218925 33985357 -100069957 83 9 1 30 13 16 13 3 21 1 83 4 1264 93 40 53 81 81 340 653 72
64 1 24 1 1 -146516096 56736796 -2355859 -102557969 83 9 3 28 10 14 10 6 25 0 83 6 1242 95 40 55 81 81 325 689 72
64 1 25 1 1 -143881811 43218148 18871559 -113421679 76 13 6 23 15 14 10 4 10 0 75 2 611 80 42 38 73 74 302 530 60
64 1 26 1 1 -120293493 73358036 -31728010 -117256494 83 6 1 26 7 15 14 1 5 0 83 0 308 68 33 35 81 81 306 511 75
64 1 27 1 1 -115891329 61446636 -25664041 -117853483 78 5 0 23 9 15 11 4 2 0 78 6 849 60 28 32 76 76 235 667 71
64 1 28 1 1 -96895556 94037065 -52891645 -136944187 75 4 0 22 7 11 8 3 20 0 75 2 1507 68 26 42 73 73 203 1083 69
64 1 29 1 1 -113650251 84219700 -40343306 -124655783 77 4 0 21 8 13 12 1 21 0 77 2 1367 72 25 47 75 75 230 817 71
66 1 0 1 1 -38764995 9642490 -67231016 -98328574 91 3 1 3 3 1 1 0 0 0 91 179 3249 9 7 2 89 89 81 986 86
66 1 1 1 1 -68550379 22231626 -41062553 -105301049 93 14 9 16 16 8 3 7 4 0 93 175 3470 61 39 22 91 91 260 1192 77
66 1 2 1 1 -21125401 35979384 -90853321 -117899135 93 3 1 3 3 1 0 1 1 0 92 183 3509 10 7 3 91 91 69 1470 88
66 1 3 1 1 -24528684 40301845 -91674373 -117295156 93 3 1 3 3 3 1 2 1 0 93 185 3477 14 7 7 91 91 71 1320 88
66 1 4 1 1 -10529136 27879565 -95028935 -115392329 92 0 0 0 0 4 0 4 0 0 92 183 3437 8 0 8 90 90 22 1262 90
66 1 5 1 1 -10299087 19327066 -89079047 -113969999 92 0 0 0 0 3 0 3 0 0 92 181 3411 6 0 6 90 90 28 1322 90
66 1 6 1 1 -29548768 16974187 -72433229 -109388117 92 3 1 3 3 3 0 3 1 0 92 181 3578 14 7 7 90 90 84 1222 87
66 1 7 1 1 -6941565 19095757 -93156387 -113100971 93 0 0 0 0 5 1 4 0 0 93 185 3659 10 0 10 91 91 32 1432 91
66 1 8 1 1 -66361981 42665248 -54890071 -115421149 91 9 5 9 9 4 1 4 1 0 91 179 3671 33 23 10 89 89 155 1223 80
66 1 9 1 1 -40342062 29345300 -66287226 -117238762 92 3 1 3 3 5 0 5 0 0 92 181 3683 17 7 10 90 90 89 1510 87
66 1 10 1 1 3550643 11549333 -98051179 -110598957 92 0 0 0 0 5 0 5 0 0 92 183 3650 10 0 10 90 90 38 1304 90
66 1 11 1 1 559991 15988963 -94912697 -115354407 91 0 0 0 0 5 0 5 0 0 91 181 3556 10 0 10 89 89 26 1260 89
66 1 12 1 0 6738503 -4997392 -89393087 -106952960 91 0 0 1 0 2 0 2 0 0 91 179 3559 5 1 4 89 89 59 1301 89
66 1 13 1 1 -31676169 22001345 -77421098 -107855319 91 3 1 3 3 2 0 2 0 0 91 179 3449 11 7 4 89 89 65 1107 86
66 1 14 1 1 -23575222 13359512 -82920397 -101461736 91 0 0 0 0 2 0 2 0 0 91 181 3564 4 0 4 89 89 40 1126 89
66 1 15 1 1 -8212336 26497708 -93427485 -118552722 91 0 0 0 0 4 0 4 0 0 91 181 3479 8 0 8 89 89 17 1392 89
66 1 16 1 1 -18946232 -15545509 -65846357 -95555590 92 1 0 2 1 2 0 2 0 0 92 183 3536 7 3 4 90 90 78 1191 89
66 1 17 1 1 -31563826 34967676 -80367528 -116513891 91 3 1 3 3 6 2 5 1 0 91 177 3454 21 7 14 89 89 77 1254 86
66 1 18 1 1 -33663767 14926932 -74914155 -100524315 90 3 1 3 3 0 0 0 0 0 90 177 3067 7 7 0 88 88 73 1148 85
66 1 19 1 1 -43320294 23920380 -64953004 -109487735 92 5 2 8 6 6 2 5 1 0 92 171 2894 29 15 14 90 90 145 1117 85
66 1 20 1 1 -23311652 17690273 -78687172 -111542066 94 2 0 7 4 10 4 7 0 0 94 178 3491 30 9 21 92 92 108 1635 90
66 1 21 1 3 -118478767 -79450558 -16623114 8196150 122 32 11 65 41 84 80 26 13 0 122 207 6011 311 108 203 120 120 781 2158 88
66 1 22 1 1 -42549500 77660727 -110337413 -123936329 106 6 3 13 8 12 8 6 4 0 106 217 6825 52 22 30 104 104 162 2423 97
66 1 23 1 1 -38312261 72587840 -121509424 -111321048 105 7 3 8 7 5 4 2 4 0 105 213 6674 33 18 15 103 103 136 2012 96
66 1 24 1 1 -85048764 68716679 -97773971 -85193900 115 10 2 17 12 19 17 4 10 0 115 243 7120 81 29 52 113 113 237 2055 103
66 1 25 1 1 -94000645 61092626 -76209552 -89856699 109 15 7 21 17 8 8 3 12 0 109 219 6634 74 43 31 107 107 295 1755 92
66 1 26 1 1 -23881622 60475544 -122945949 -112200030 107 4 0 12 4 6 5 3 3 0 106 208 6611 33 16 17 104 105 140 2250 100
66 1 27 1 1 -58424328 43605642 -82466503 -102717463 107 8 1 17 9 14 10 4 7 0 107 208 6780 61 26 35 105 105 232 2077 97
66 1 28 1 1 -17378231 24145298 -100905530 -105832994 103 5 1 19 7 6 5 2 1 0 103 207 6685 39 25 14 101 101 196 2097 96
66 1 29 1 1 -75117833 64226034 -83222346 -102419207 107 11 3 18 13 19 17 7 10 0 107 229 6447 86 32 54 105 105 256 1864 94
85 2 0 1 2 -126850675 -86735092 38463520 -23331617 88 47 28 55 50 21 17 5 0 0 88 0 77 173 130 43 86 86 835 390 39
85 2 1 1 2 -97071700 -80013757 10698644 -31874838 66 26 6 35 28 3 2 1 0 0 66 0 245 73 67 6 64 64 506 342 38
85 2 2 1 2 -104499727 -70582983 35688942 -55520914 60 52 46 52 52 8 5 3 0 0 60 0 11 166 150 16 58 58 790 10 6
85 2 3 1 2 -91774911 -78626197 37191030 -62680458 58 55 47 55 55 10 10 0 0 0 58 0 0 177 157 20 56 56 829 3 1
85 2 4 1 3 -130067303 -72359453 -22185455 22222801 101 42 20 59 47 52 48 10 0 0 101 0 105 231 121 110 99 99 812 471 58
85 2 5 1 2 -114999348 -78934902 8840068 -21464925 116 21 11 35 23 69 68 3 11 0 116 16 319 218 67 151 114 114 535 614 93
85 2 6 1 1 -121472949 44085789 -26363456 -94550518 77 6 0 13 7 4 2 3 1 0 77 0 393 29 19 10 75 75 222 77 69
85 2 7 1 2 -159090790 -17094612 -5600820 -20427526 97 30 13 45 32 19 17 4 1 0 97 0 370 129 88 41 95 95 635 223 65
85 2 8 1 1 -89025503 8012979 -5124282 -112031324 79 5 2 11 5 5 0 5 0 0 79 0 652 28 18 10 77 77 211 423 72
85 2 9 1 1 -82509998 22801543 -42123785 -96205886 74 0 0 7 0 1 1 0 0 0 74 0 240 9 7 2 72 72 122 124 72
85 2 10 1 1 -91826959 14809366 -27524398 -93477873 71 0 0 8 0 0 0 0 0 0 71 0 434 8 8 0 69 69 136 68 69
85 2 11 1 1 -82850874 4136786 -24916728 -95147550 69 0 0 3 0 2 2 0 0 0 69 0 381 7 3 4 67 67 130 125 67
85 2 12 1 1 -78486522 3126731 -22706950 -100224938 67 0 0 7 0 1 1 0 0 0 67 0 327 9 7 2 65 65 140 126 65
85 2 13 1 1 -83380346 314178 -21061749 -94484162 63 0 0 9 1 0 0 0 0 0 63 0 334 9 9 0 61 61 150 82 61
85 2 14 1 1 -53259934 3543779 -53401065 -93523501 63 0 0 7 0 0 0 0 0 0 63 0 194 7 7 0 61 61 130 80 61
85 2 15 1 1 -64485727 4066524 -40370684 -96542369 62 0 0 11 0 0 0 0 0 0 62 0 226 11 11 0 60 60 140 101 60
85 2 16 1 1 -75946524 11108748 -38226254 -94121267 62 2 0 11 2 0 0 0 0 0 62 0 198 13 13 0 60 60 168 103 58
85 2 17 1 1 -59811297 -899633 -40967650 -95501108 62 0 0 12 0 0 0 0 0 0 62 0 229 12 12 0 60 60 159 114 60
85 2 18 1 1 -51407004 10730415 -60178706 -95252518 62 0 0 8 0 0 0 0 0 0 62 0 166 8 8 0 60 60 127 86 60
85 2 19 1 1 -63745620 -2802632 -40730377 -90676558 62 0 0 12 1 0 0 0 0 0 62 0 243 12 12 0 60 60 150 59 60
85 2 20 1 1 -64705121 8155800 -44283361 -96279060 61 0 0 9 0 0 0 0 0 0 61 0 237 9 9 0 59 59 127 59 59
85 2 21 1 1 -54143030 3441137 -53794590 -92433253 62 0 0 5 0 0 0 0 0 0 62 0 242 5 5 0 60 60 123 59 60
85 2 22 1 1 -58383826 15677357 -57233794 -96324770 61 0 0 10 0 0 0 0 0 0 61 0 182 10 10 0 59 59 134 59 59
85 2 23 1 1 -59660490 2271246 -48455721 -91475997 61 0 0 6 0 0 0 0 0 0 61 0 124 6 6 0 59 59 129 57 59
85 2 24 1 1 -53184829 -8085152 -41308618 -94975526 61 0 0 8 0 1 1 0 0 0 61 0 33 10 8 2 59 59 137 57 59
85 2 25 1 2 -84777687 -53027217 -5165804 -56232953 95 20 12 38 22 46 44 3 5 0 95 9 129 168 70 98 93 93 497 484 73
85 2 26 1 3 -98801928 -108659674 -4280079 11131668 68 38 13 44 38 39 39 0 1 0 68 0 0 174 95 79 66 66 648 187 28
85 2 27 1 2 -67373568 -50401436 22122369 -98467921 60 13 6 27 14 9 9 1 0 0 60 0 3 65 46 19 58 58 353 329 45
85 2 28 1 2 -67249381 -32926367 1232868 -98591346 62 9 1 22 11 8 8 0 0 0 62 0 5 48 32 16 60 60 288 352 51
85 2 29 1 1 -67031607 -27547817 -40972612 -65819301 111 9 1 19 11 1 1 0 0 0 111 0 366 31 29 2 109 109 293 796 100
86 2 0 1 3 -77776197 -51683400 -37518654 -29910466 106 30 3 61 37 27 21 11 5 0 106 146 2996 158 94 64 104 104 736 1152 74
86 2 1 1 3 -114109446 -47042910 -18554211 -6815876 93 40 13 58 47 30 3 29 3 0 92 123 2698 176 111 65 91 91 819 693 49
86 2 2 1 3 -137432509 -89511896 1838947 21330460 100 65 29 87 77 33 28 7 6 0 100 122 2702 255 181 74 98 98 1175 488 33
86 2 3 1 2 -83965419 -87489921 6075252 -23155342 80 35 15 51 37 10 1 9 8 0 79 137 2518 129 101 28 78 78 667 646 43
86 2 4 1 1 -101719797 1116944 -15830738 -68820974 103 19 6 50 31 41 9 33 15 0 103 131 2763 173 75 98 101 101 617 1291 83
86 2 5 1 2 -96077723 -77011656 -1061408 -20670762 109 31 12 53 41 29 24 11 9 0 109 155 2887 169 96 73 107 107 735 1136 76
86 2 6 1 2 -78859030 -63410181 -17779496 -31140646 96 30 6 48 36 20 1 19 2 0 96 143 2957 126 84 42 94 94 651 967 64
86 2 7 1 2 -110941048 -77943017 8831985 -18083531 95 69 36 87 79 28 16 15 2 0 95 97 2751 253 192 61 93 93 1199 349 24
86 2 8 1 2 -148235202 -88762375 42490828 -9301574 94 76 40 90 87 21 14 7 0 0 94 64 2299 248 206 42 92 92 1276 202 16
86 2 9 1 2 -125956187 -81659984 13200911 -8701158 97 65 35 90 80 17 14 4 1 0 97 86 2761 226 190 36 95 95 1218 452 28
86 2 10 1 3 -93230466 -82245044 -29552413 10549517 101 34 9 64 45 16 7 11 1 0 101 136 3053 142 107 35 99 99 819 1057 65
86 2 11 1 3 -130218371 -94073316 1540174 16909065 98 71 23 94 81 24 22 2 2 0 98 100 2901 238 188 50 96 96 1241 391 25
86 2 12 1 3 -128366814 -79559374 -9561447 15686561 96 68 25 93 79 11 4 9 0 0 95 95 2806 210 186 24 94 94 1235 393 25
86 2 13 1 2 -148652580 -93509230 33000246 3057219 97 78 30 95 86 26 22 4 3 0 97 105 2918 258 203 55 95 95 1305 265 17
86 2 14 1 3 -115836870 -78243036 -44575842 43010512 99 46 10 73 55 14 8 8 1 0 99 124 2934 160 129 31 97 97 923 847 51
86 2 15 1 3 -89975094 -67339887 -33654416 438824 98 33 9 60 43 25 6 21 0 0 98 114 2687 154 102 52 96 96 764 1034 63
86 2 16 1 3 -111133886 -70955395 -17481401 7506522 93 36 9 59 41 29 10 20 0 0 93 99 2481 163 104 59 91 91 768 759 55
86 2 17 1 2 -77177739 -71500233 -21328651 -21876651 95 29 5 54 35 21 6 18 0 0 95 113 2634 133 88 45 93 93 686 1019 64
86 2 18 1 1 -35030227 -27827049 -49623607 -79077422 91 10 6 46 21 18 2 16 0 0 91 115 2517 98 62 36 89 89 528 1143 79
86 2 19 1 0 -23731820 -62434647 -38371854 -70981020 104 9 4 24 12 15 6 10 0 0 104 167 2970 68 37 31 102 102 360 1281 92
86 2 20 1 2 -73881882 -96957353 45186901 -71302429 91 26 14 34 27 17 13 5 12 0 91 177 3120 121 74 47 89 89 524 1349 63
86 2 21 1 2 -57783518 -86691506 6307047 -55183254 86 22 8 36 22 8 0 8 5 0 86 159 2914 87 66 21 84 84 486 1162 62
86 2 22 1 2 -52251679 -63055828 -14827262 -61543082 93 18 4 39 21 18 2 17 4 0 93 157 2881 102 61 41 91 91 499 1206 73
86 2 23 1 2 -63571842 -83659973 12049611 -60571148 92 20 6 43 26 18 14 5 0 0 92 120 2405 106 69 37 90 90 546 1064 70
86 2 24 1 0 -1275040 -60248118 -40365585 -91466602 100 4 0 37 6 25 10 18 1 0 100 148 2878 95 41 54 98 98 400 1593 94
86 2 25 1 2 -69322349 -59922625 6944270 -70873695 100 20 6 38 24 22 12 17 10 0 100 159 3148 125 64 61 98 98 536 1450 78
86 2 26 1 2 -29201027 -63117134 -25079287 -72759464 91 14 5 42 17 18 6 12 1 0 91 114 2647 98 61 37 89 89 510 1072 75
86 2 27 1 2 -86544232 -85856147 778510 -20212626 92 36 21 69 43 14 7 8 1 0 91 102 2588 156 126 30 90 90 808 885 54
86 2 28 1 3 -90643776 -85897940 -47528706 30806163 89 50 16 73 61 21 8 13 0 0 89 91 2449 181 139 42 87 87 963 550 37
86 2 29 1 2 -90584277 -71488811 -148502 -28613897 90 34 10 58 39 21 10 12 6 0 90 92 2508 151 102 49 88 88 750 825 54
87 2 0 1 0 26916796 -101074815 -58393022 -64235163 93 2 0 4 2 0 0 0 0 0 93 185 2603 6 6 0 91 91 152 954 89
87 2 1 1 0 4586356 -93932282 -53813441 -54970939 96 5 0 16 8 0 0 0 0 0 95 191 2591 21 21 0 94 94 253 881 89
87 2 2 1 0 -15863631 -65679078 -44776892 -71243806 95 7 2 12 8 4 4 0 1 0 94 189 2583 30 21 9 93 93 237 880 85
87 2 3 1 0 20365888 -88453023 -67043499 -61807437 96 2 0 9 2 0 0 0 0 0 95 187 2551 11 11 0 94 94 179 913 92
87 2 4 1 2 -36074613 -80721843 -23655393 -59069068 107 11 2 17 12 2 2 0 2 0 107 209 3038 36 30 6 105 105 298 1084 94
87 2 5 1 3 -37571761 -88051779 -46625033 -29232246 110 13 2 28 21 3 3 0 1 0 110 219 3124 50 43 7 108 108 421 1042 95
87 2 6 1 3 -41195115 -86164506 -51489143 -19444527 109 18 5 37 21 2 2 0 1 0 108 211 2431 65 60 5 107 107 500 787 88
87 2 7 1 0 18579457 -98940819 -65103064 -52664732 101 7 2 18 7 1 1 0 0 0 101 201 2503 29 27 2 99 99 296 899 92
87 2 8 1 0 6986023 -92642307 -56545592 -54419346 95 11 3 22 13 0 0 0 0 0 95 189 2595 36 36 0 93 93 332 881 82
87 2 9 1 0 6362385 -66132438 -102216175 -36254743 126 5 2 17 8 0 0 0 0 0 126 251 3591 24 24 0 124 124 272 1398 120
87 2 10 1 0 -304121 -105563908 -56529676 -37271995 116 7 1 18 10 0 0 0 0 0 116 231 3351 26 26 0 114 114 312 1270 107
87 2 11 1 0 2195410 -94536218 -50051870 -54445877 99 9 3 21 13 2 2 0 0 0 99 193 2589 37 33 4 97 97 325 880 88
87 2 12 1 0 -21474480 -76853752 -62511235 -37976838 115 12 5 22 13 0 0 0 1 0 115 223 3065 40 39 1 113 113 330 1139 101
